"Name","Alanine_Su16","Arginine_Su16","Aspartic.acid_Su16","Cysteine_Su16","Glutamic.acid_Su16","Glycine_Su16","Histidine_Su16","Isoleucine_Su16","Leucine_Su16","Lysine_Su16","Methionine_Su16","Phenylalanine_Su16","Proline_Su16","Protein_Su16","Serine_Su16","Threonine_Su16","Tryptophan_Su16","Tyrosine_Su16","Valine_Su16"
"X3156.11_AGL",1.1477,1.9968,3.3271,0.2561,4.6096,1.131,0.9558,1.2136,2.068,1.8994,0.2596,1.3875,1.1836,29.4261,1.3936,1.0264,0.2209,0.8341,1.3671
"CDC_Asterix_AGL",1.1124,1.9288,3.2584,0.2524,4.5297,1.1038,0.8404,1.204,2.0392,1.8933,0.2621,1.381,1.1562,28.6052,1.396,1.0147,0.2119,0.8157,1.3468
"CDC_Cherie_AGL",1.1381,1.9794,3.2271,0.2499,4.4992,1.1042,1.0364,1.1873,2.0288,1.8467,0.2478,1.3622,1.1737,29.4213,1.3708,0.9995,0.2221,0.8053,1.3387
"CDC_Glamis_AGL",1.2356,2.1651,3.4337,0.2618,4.8235,1.1787,1.0446,1.2901,2.1846,1.9854,0.252,1.4782,1.2506,31.0304,1.5009,1.0301,0.2345,0.8846,1.4595
"CDC_Gold_AGL",1.198,1.8806,3.2485,0.2676,4.4055,1.115,0.9548,1.1974,2.0194,1.8334,0.2546,1.365,1.1842,28.7928,1.3655,0.9685,0.2259,0.8298,1.3264
"CDC_Greenstar_AGL",1.0929,1.8555,3.1328,0.2577,4.3692,1.103,0.8511,1.1682,1.9782,1.8125,0.2526,1.3318,1.1494,27.9528,1.3366,1.0142,0.2158,0.8086,1.2937
"CDC_Imax_AGL",1.2082,2.1787,3.6375,0.2549,4.9833,1.2744,0.9959,1.293,2.2327,2.002,0.2382,1.4771,1.2344,31.0886,1.5096,1.1466,0.2527,0.887,1.4686
"CDC_Impower_AGL",1.1097,2.0094,3.35,0.2353,4.5948,1.2051,1.1538,1.1971,2.092,1.8485,0.219,1.3729,1.1932,29.8159,1.415,1.0602,0.2397,0.8324,1.3433
"CDC_KR.1_AGL",1.1295,1.9543,3.1915,0.2479,4.4427,1.1055,0.9835,1.1719,2.015,1.8252,0.2421,1.3531,1.1724,28.6007,1.3468,0.9998,0.2164,0.793,1.3168
"CDC_LeMay_AGL",1.1453,2.1404,3.3129,0.242,4.7058,1.1289,0.9974,1.2373,2.1031,1.9083,0.2515,1.4299,1.2108,29.9874,1.4308,0.9997,0.2176,0.8175,1.3972
"CDC_Maxim_AGL",0.9884,1.6885,3.0516,0.2052,4.2433,1.0929,0.8648,1.095,1.9143,1.7437,0.2196,1.2539,1.0905,26.6515,1.2646,1.0223,0.211,0.7448,1.2328
"CDC_QG.1_AGL",1.2009,2.1655,3.4812,0.2657,4.8588,1.1912,1.0133,1.2906,2.185,1.9994,0.2695,1.4737,1.2225,30.9378,1.4985,1.0924,0.2306,0.8953,1.4527
"CDC_Red_Rider_AGL",1.2373,2.1964,3.6253,0.2819,4.9095,1.1832,0.8917,1.2884,2.1926,2.0047,0.2733,1.4799,1.2358,30.7814,1.4888,1.098,0.2334,0.8844,1.4529
"CDC_Redcoat_AGL",1.1882,2.1445,3.432,0.2587,4.7911,1.1685,1.0839,1.2548,2.156,1.9553,0.2521,1.448,1.2273,30.6899,1.4551,1.0212,0.2268,0.8528,1.4153
"CDC_Redwing_AGL",1.1893,2.1851,3.5444,0.2664,4.9458,1.1828,0.9999,1.303,2.2007,1.9966,0.2616,1.486,1.2183,30.9672,1.521,1.0605,0.2278,0.8682,1.4476
"CDC_Robin_AGL",1.1452,1.9796,3.2457,0.2557,4.5604,1.1315,0.9691,1.1956,2.0577,1.8934,0.2603,1.3927,1.1683,28.9531,1.4061,0.997,0.219,0.8331,1.3573
"CDC_Rosebud_AGL",1.1681,2.1693,3.535,0.2746,4.8504,1.1716,1.0244,1.2908,2.1762,1.9896,0.2641,1.4816,1.222,30.8643,1.5025,1.0655,0.2295,0.8908,1.452
"CDC_Rosetown_AGL",1.1442,1.989,3.2418,0.2492,4.5437,1.1133,0.9485,1.2016,2.0623,1.8939,0.2473,1.4005,1.1842,29.0426,1.4024,1.0073,0.2159,0.8125,1.366
"CDC_Rosie_AGL",1.2384,2.2327,3.6038,0.2755,4.9961,1.2078,0.9454,1.3159,2.239,2.041,0.2686,1.5131,1.238,31.3032,1.5314,1.1097,0.2325,0.8897,1.4894
"CDC_Rouleau_AGL",1.094,1.7693,3.0428,0.2298,4.2938,1.0688,0.8584,1.1248,1.931,1.7754,0.2478,1.2878,1.147,27.5091,1.2945,0.959,0.211,0.7668,1.2645
"CDC_Royale_AGL",1.141,1.9603,3.22,0.2454,4.5113,1.1291,0.9887,1.1946,2.0405,1.8759,0.2513,1.3694,1.1749,29.0624,1.3885,0.9845,0.2191,0.8152,1.3492
"CDC_Ruby_AGL",1.1892,2.103,3.4368,0.2646,4.8155,1.1692,0.9401,1.2631,2.1553,1.9619,0.2637,1.4543,1.2092,30.419,1.4704,1.0518,0.2282,0.8505,1.4247
"CDC_SB.1_AGL",1.12,1.9905,3.2981,0.2463,4.4847,1.0973,1.1276,1.1837,2.0224,1.8452,0.2479,1.358,1.183,29.3963,1.3844,0.9616,0.2184,0.8126,1.3383
"CDC_Sedley_AGL",1.1033,1.9877,3.1811,0.2495,4.4644,1.1003,1.0148,1.1823,2.0139,1.8357,0.2475,1.3625,1.1833,28.9572,1.3725,0.9844,0.2177,0.8244,1.3305
"CDC_Vantage_AGL",1.1914,1.9342,3.2952,0.2704,4.535,1.1576,0.9178,1.2052,2.0569,1.9051,0.2715,1.3822,1.1964,29.1758,1.4047,1.0635,0.2261,0.8453,1.3478
"CN_105604_AGL",1.0889,1.9259,3.1328,0.2346,4.4394,1.0831,1.0683,1.1658,1.999,1.8279,0.2519,1.3497,1.1525,28.9226,1.3609,0.9611,0.2104,0.7909,1.3165
"CN_105605_AGL",1.1824,2.0105,3.4172,0.2657,4.6417,1.1373,0.8825,1.221,2.0989,1.9342,0.2788,1.4014,1.1884,29.4383,1.4305,1.0453,0.225,0.8292,1.3886
"CN_105715_AGL",1.2448,2.3673,3.6489,0.2641,5.1869,1.2267,1.0894,1.364,2.3126,2.0757,0.2664,1.5632,1.285,32.6912,1.5796,1.1131,0.2389,0.9028,1.5305
"CN_105732_AGL",1.2115,2.1813,3.4955,0.2566,4.9164,1.2058,1.0188,1.2795,2.1884,1.9875,0.2745,1.467,1.2612,31.2358,1.4846,1.0728,0.2308,0.8729,1.4384
"CN_105767_AGL",1.1441,2.0355,3.3104,0.2534,4.6002,1.1216,0.9862,1.2131,2.0829,1.8952,0.2594,1.4052,1.2119,29.5351,1.4028,1.0154,0.2162,0.8219,1.363
"CN_105777_AGL",1.2014,2.1855,3.5249,0.2614,4.8436,1.1633,1.1782,1.2435,2.1535,1.9502,0.2692,1.4456,1.2217,31.2324,1.4672,1.0191,0.2311,0.8556,1.4082
"CN_105789_AGL",1.2346,2.3117,3.7122,0.2704,5.0569,1.2273,1.0955,1.3103,2.2551,2.0175,0.285,1.5007,1.2539,32.1715,1.5346,1.1081,0.2416,0.8986,1.497
"CN_105791_AGL",1.1486,2.2677,3.5387,0.2716,4.8377,1.1358,1.16,1.2597,2.1557,1.9551,0.2529,1.4626,1.2279,31.33,1.4907,0.9997,0.2275,0.881,1.4333
"CN_105862_AGL",1.1604,2.0246,3.2898,0.2493,4.6665,1.1372,1.0041,1.2307,2.0909,1.919,0.2538,1.4077,1.2139,30.017,1.4305,0.9966,0.2227,0.8522,1.384
"CN_105863_AGL",1.1816,2.1658,3.3023,0.2373,4.8326,1.161,1.019,1.2576,2.1722,1.9689,0.2559,1.4613,1.2811,31.3606,1.4685,1.0568,0.2195,0.8427,1.4044
"CN_105864_AGL",1.1607,2.003,3.3417,0.2401,4.6704,1.1408,0.9985,1.2138,2.0905,1.9007,0.2631,1.3978,1.2117,29.5027,1.4066,1.0062,0.2157,0.8202,1.3567
"CN_105865_AGL",1.2844,2.37,3.6072,0.2536,5.1679,1.2488,1.2782,1.3243,2.2991,2.0569,0.2691,1.5348,1.3267,33.6934,1.55,1.1004,0.2447,0.92,1.4895
"CN_105866_AGL",1.0928,1.929,3.1109,0.2352,4.4213,1.0695,0.9728,1.1643,1.9853,1.832,0.2298,1.343,1.1681,28.3078,1.3651,0.9255,0.2088,0.7854,1.3127
"CN_105895_AGL",1.2222,2.2746,3.5951,0.2596,4.9821,1.2,1.0632,1.2971,2.2298,1.9975,0.2695,1.4933,1.2472,31.7249,1.512,1.0729,0.2371,0.8689,1.4778
"CN_106265_AGL",1.1611,2.0806,3.3764,0.2561,4.6732,1.1567,1.0723,1.2158,2.0934,1.8992,0.2567,1.4058,1.2057,30.0742,1.4194,1.022,0.2231,0.8303,1.3673
"CN_108369_AGL",1.2364,2.2391,3.4713,0.2498,4.936,1.1984,1.1764,1.2878,2.2203,1.9951,0.2604,1.4909,1.2847,31.9281,1.4912,1.029,0.2334,0.8811,1.4508
"CN_108370_AGL",1.2365,2.2794,3.6341,0.275,5.0783,1.2445,1.0492,1.3356,2.2687,2.0744,0.2772,1.5296,1.2546,32.1079,1.5677,1.149,0.2402,0.9305,1.5146
"Crimson_AGL",1.1641,2.0537,3.3816,0.2562,4.6798,1.1702,0.9945,1.2269,2.1106,1.9167,0.2635,1.4128,1.2194,30.1492,1.4246,1.0559,0.2297,0.8556,1.3946
"DPL_62_AGL",1.1567,2.1123,3.3638,0.2544,4.6865,1.1495,1.1837,1.2366,2.1141,1.9191,0.2502,1.4276,1.2243,30.7493,1.4516,1.0153,0.2246,0.8351,1.393
"Eston_AGL",1.1416,2.0642,3.3962,0.2585,4.6365,1.1491,1.094,1.2152,2.0821,1.8883,0.262,1.3947,1.2095,30.3493,1.4187,1.0116,0.2258,0.841,1.3706
"Gudo_AGL",1.1773,2.2591,3.4787,0.2606,4.914,1.184,1.1285,1.2949,2.1966,1.9576,0.2568,1.4848,1.2482,31.3242,1.5091,1.0395,0.2284,0.9026,1.4447
"IG_1046_AGL",1.2465,2.1303,3.5924,0.2755,4.7818,1.194,1.0343,1.2551,2.1625,1.9611,0.2783,1.4415,1.2506,31.1253,1.4666,1.0773,0.2418,0.871,1.4191
"IG_1706_AGL",1.3336,2.5254,4.0592,0.2873,5.2897,1.2629,1.0778,1.3581,2.3765,2.1204,0.2954,1.5768,1.3295,33.419,1.5894,1.1622,0.2589,0.9391,1.5704
"IG_1959_AGL",1.0434,1.7679,3.016,0.2508,4.1387,1.0302,0.9908,1.1006,1.8815,1.7641,0.248,1.2576,1.1115,27.5453,1.2883,0.9469,0.2075,0.7754,1.2426
"IG_4258_AGL",0.9949,1.7888,2.9843,0.2351,4.1288,1.007,1.039,1.0924,1.8638,1.7143,0.226,1.2613,1.0913,27.2848,1.2713,0.9295,0.1979,0.738,1.2167
"IG_4781_AGL",1.1777,2.0941,3.3577,0.2551,4.7495,1.1517,0.9616,1.256,2.1221,1.9293,0.2634,1.4384,1.2238,29.9937,1.4546,1.0262,0.2206,0.8518,1.3998
"IG_858_AGL",1.1302,2.0197,3.3101,0.2503,4.593,1.1144,1.016,1.1978,2.0536,1.872,0.2564,1.3765,1.1724,29.3334,1.3959,0.978,0.2207,0.8184,1.3535
"ILL_10657_AGL",1.2925,2.3064,3.7022,0.2861,5.1063,1.2648,0.9519,1.3276,2.2718,2.0493,0.2905,1.5225,1.2726,31.8905,1.5466,1.1363,0.2441,0.9317,1.5083
"ILL_10748_AGL",1.067,1.8753,3.0103,0.235,4.3313,1.0589,0.9446,1.1403,1.9514,1.792,0.2476,1.3182,1.1643,27.8747,1.3202,0.9391,0.2001,0.7765,1.2658
"ILL_11547_AGL",1.2809,2.4344,3.8489,0.2837,5.1876,1.2561,1.1778,1.3614,2.3134,2.0521,0.2757,1.5535,1.2821,32.9503,1.5809,1.1015,0.2472,0.9347,1.5438
"ILL_11548_AGL",1.1768,2.113,3.5038,0.2638,4.8225,1.1897,0.9852,1.2609,2.1598,1.9563,0.2817,1.4439,1.2144,30.614,1.4738,1.0931,0.2359,0.8582,1.4287
"ILL_11553_AGL",1.1045,1.9383,3.1721,0.2326,4.4417,1.0938,1.1036,1.168,2.0037,1.8158,0.2427,1.343,1.1847,29.1559,1.3484,0.9601,0.21,0.7738,1.3027
"ILL_11555_AGL",1.1704,2.1656,3.4053,0.2508,4.7492,1.1758,1.1492,1.2483,2.1353,1.9118,0.2575,1.4359,1.2464,30.757,1.4467,1.0361,0.2224,0.8385,1.394
"ILL_11557_AGL",1.1921,2.1246,3.3685,0.2461,4.706,1.1539,1.1729,1.2285,2.1213,1.901,0.2536,1.4239,1.2466,30.8221,1.4284,1.0201,0.2271,0.8247,1.3785
"ILL_11558_AGL",1.1424,1.9984,3.2307,0.2349,4.5046,1.1097,1.2124,1.1831,2.0371,1.8373,0.2434,1.3625,1.207,30.1233,1.3793,0.9535,0.2197,0.7876,1.3244
"ILL_1220_AGL",1.1969,1.9504,3.2748,0.2588,4.479,1.1238,0.9797,1.1899,2.0383,1.8838,0.2661,1.3648,1.1873,29.3851,1.3921,0.985,0.2264,0.8204,1.3573
"ILL_1553_AGL",1.2402,2.1645,3.5751,0.2767,4.9625,1.2102,0.958,1.3082,2.2188,2.0207,0.2834,1.4899,1.249,31.0958,1.5177,1.0799,0.2362,0.91,1.4673
"ILL_1762_AGL",1.0657,1.7518,3.063,0.2484,4.1864,1.0373,0.8676,1.105,1.9017,1.7872,0.2441,1.2685,1.1157,27.3076,1.2971,0.9447,0.2058,0.7556,1.256
"ILL_1983_AGL",1.0582,1.945,3.1246,0.2343,4.3795,1.0559,1.1657,1.1525,1.9647,1.804,0.2359,1.3232,1.1491,29.2112,1.3496,0.9478,0.2118,0.7892,1.3027
"ILL_213_AGL",1.1305,1.9727,3.3177,0.257,4.5245,1.0919,0.9814,1.1796,2.0255,1.8816,0.2614,1.3485,1.1706,29.6415,1.3797,1.0135,0.222,0.8305,1.3474
"ILL_2194_AGL",0.9816,1.7077,2.9046,0.227,4.0723,1.0008,0.9714,1.0709,1.8243,1.6701,0.2437,1.2253,1.1109,26.8678,1.2306,0.8948,0.1991,0.7452,1.1785
"ILL_2507_AGL",1.1021,2.0261,3.2752,0.2362,4.5527,1.0999,1.1374,1.1873,2.0399,1.8419,0.2451,1.3716,1.1858,29.576,1.3715,0.9822,0.2136,0.798,1.3332
"ILL_2580_AGL",1.0878,1.993,3.2209,0.2257,4.5121,1.0775,1.1335,1.1688,2.005,1.8175,0.2395,1.3446,1.1675,29.4964,1.3555,0.9839,0.2135,0.7892,1.3142
"ILL_28_AGL",1.0781,2.0051,3.1505,0.2334,4.5403,1.0743,0.9884,1.1892,2.025,1.8184,0.2336,1.3661,1.2054,29.2449,1.3627,0.963,0.2094,0.7888,1.3098
"ILL_3025_AGL",1.0114,1.7845,3.0415,0.2223,4.2826,1.0204,0.9449,1.1335,1.9328,1.7717,0.2251,1.3048,1.1117,27.1139,1.312,0.8916,0.1942,0.7414,1.2626
"ILL_313_AGL",1.1623,2.1696,3.4548,0.2402,4.8447,1.1456,1.0945,1.2691,2.1585,1.9306,0.2525,1.4552,1.2442,30.9467,1.4567,1.0151,0.2238,0.8462,1.4156
"ILL_3347_AGL",1.0217,1.7907,2.9814,0.2282,4.208,1.0189,1.0432,1.1164,1.8914,1.7444,0.2268,1.277,1.1102,27.6799,1.2964,0.9078,0.2016,0.753,1.2466
"ILL_358_AGL",1.1739,2.1892,3.532,0.2456,4.9504,1.1675,0.9873,1.2969,2.1982,1.9719,0.2551,1.4843,1.2733,31.065,1.4988,1.0412,0.2235,0.8432,1.4325
"ILL_3597_AGL",1.0623,1.8329,3.0416,0.2301,4.2592,1.0395,1.0295,1.127,1.9263,1.7524,0.2352,1.2958,1.1296,27.8307,1.3024,0.9454,0.2032,0.7571,1.2564
"ILL_4164_AGL",1.0773,1.9324,3.252,0.2433,4.4984,1.0753,0.9369,1.1944,2.0217,1.8466,0.2409,1.3635,1.1482,28.472,1.3792,0.9807,0.2114,0.81,1.3354
"ILL_4400_AGL",1.1842,2.2682,3.523,0.252,4.9935,1.1874,1.1222,1.2949,2.2209,1.9867,0.2569,1.4952,1.2762,31.7916,1.4938,1.0616,0.2364,0.8823,1.4598
"ILL_4605_AGL",1.0966,1.9087,3.119,0.2388,4.3629,1.0793,0.9362,1.1665,1.9853,1.8311,0.2449,1.352,1.189,28.3673,1.3419,0.9908,0.2102,0.7805,1.3074
"ILL_4609_AGL",1.1083,1.8858,3.1932,0.2337,4.4907,1.0898,0.9965,1.1679,2.0024,1.8377,0.2524,1.3425,1.1446,28.7739,1.3614,0.9989,0.2155,0.7955,1.3117
"ILL_4665_AGL",1.1898,2.1263,3.4099,0.2476,4.7932,1.163,1.0355,1.2519,2.1475,1.9455,0.2642,1.4389,1.2532,31.0195,1.4471,1.0533,0.2317,0.8555,1.4068
"ILL_4671_AGL",1.1917,2.2385,3.3912,0.2384,4.8928,1.1692,1.0884,1.2595,2.1809,1.9403,0.251,1.461,1.2992,31.8484,1.4496,1.0682,0.2344,0.8518,1.4101
"ILL_4768_AGL",1.208,2.2155,3.5646,0.266,4.8465,1.1881,1.0774,1.2682,2.1807,1.9433,0.2695,1.4594,1.2291,31.066,1.4755,1.0449,0.2395,0.8678,1.4473
"ILL_4782_AGL",1.1933,2.2017,3.5374,0.2627,4.8217,1.1879,1.1031,1.2549,2.1594,1.9376,0.2664,1.444,1.2187,31.169,1.4718,1.0556,0.2392,0.8652,1.4318
"ILL_4783_AGL",1.1882,2.1439,3.3941,0.242,4.8532,1.1647,1.041,1.2513,2.1642,1.9653,0.2673,1.4568,1.2558,31.1757,1.4474,1.0576,0.2315,0.8628,1.4138
"ILL_4804_AGL",1.123,1.8885,3.1725,0.2334,4.4759,1.0963,1.0451,1.1633,2.0103,1.8392,0.2525,1.3448,1.1924,29.2187,1.336,0.9868,0.2153,0.7904,1.3012
"ILL_4875_AGL",1.1563,2.0238,3.4338,0.2466,4.6452,1.1319,0.9962,1.2135,2.0858,1.9258,0.2694,1.3918,1.1895,29.3916,1.4197,1.0333,0.217,0.8486,1.3758
"ILL_4956_AGL",1.2385,2.24,3.5809,0.2646,4.9901,1.2039,1.031,1.2949,2.2228,2.0205,0.2769,1.4943,1.2907,32.1394,1.5072,1.1018,0.2356,0.8895,1.4556
"ILL_5058_AGL",1.1689,2.061,3.3424,0.2435,4.69,1.1528,1.0441,1.2293,2.0938,1.894,0.2476,1.4069,1.2266,30.0677,1.4279,1.0123,0.2271,0.8448,1.3727
"ILL_5151_AGL",1.2343,2.4109,3.8368,0.2725,5.196,1.2579,1.2206,1.3253,2.2965,2.0468,0.2775,1.531,1.2849,33.0723,1.5552,1.1456,0.2462,0.9137,1.5054
"ILL_5209_AGL",1.1651,2.0779,3.5024,0.2569,4.8345,1.1655,1.0119,1.2643,2.147,1.9566,0.2728,1.4384,1.2255,30.6707,1.4632,1.0563,0.2247,0.8694,1.3996
"ILL_5480_AGL",1.277,2.2051,3.5725,0.2559,4.9254,1.2226,1.1186,1.2956,2.2367,1.9905,0.2664,1.4996,1.2963,31.8293,1.4987,1.0837,0.2431,0.8811,1.4635
"ILL_5639_AGL",1.1118,1.9438,3.2015,0.2224,4.4963,1.0659,1.0364,1.1763,2.015,1.8245,0.2463,1.3497,1.1983,29.0103,1.3581,0.9239,0.209,0.7711,1.3054
"ILL_5722_AGL",1.1462,2.1855,3.4279,0.247,4.8261,1.1493,1.1224,1.2306,2.1276,1.9177,0.2429,1.4275,1.2207,30.5386,1.4507,1.0215,0.2235,0.8458,1.3883
"ILL_5883_AGL",1.2016,2.3485,3.6247,0.2526,5.1265,1.1961,1.1633,1.3307,2.2581,2.0123,0.2461,1.5261,1.2922,32.4985,1.5499,1.0593,0.2284,0.8809,1.4685
"ILL_5888_AGL",0.9969,1.6247,2.8536,0.2281,3.938,0.998,0.9442,1.0663,1.8053,1.6783,0.2325,1.2232,1.0953,25.9951,1.225,0.9038,0.1937,0.7247,1.1817
"ILL_5945_AGL",1.2142,2.2426,3.702,0.2563,4.9841,1.2212,1.1155,1.2893,2.2277,1.9761,0.2755,1.4749,1.238,31.7229,1.5051,1.0945,0.2457,0.8694,1.4758
"ILL_6002_AGL",1.1896,2.1968,3.4782,0.2497,4.9311,1.1905,1.0052,1.2919,2.2027,1.9833,0.2535,1.4911,1.2644,31.1905,1.4914,1.0743,0.2298,0.862,1.4446
"ILL_618_AGL",1.1844,2.0635,3.471,0.2535,4.7295,1.1551,1.0805,1.237,2.1213,1.9498,0.2639,1.4135,1.2271,30.6121,1.4474,1.029,0.2309,0.8494,1.3996
"ILL_6182_AGL",1.1835,2.2012,3.5121,0.2519,4.8742,1.1767,1.1538,1.2735,2.1704,1.9559,0.2453,1.4659,1.2408,31.4253,1.4815,1.0663,0.2298,0.8561,1.4261
"ILL_6211_AGL",1.2291,2.2395,3.5633,0.2544,4.9492,1.2133,1.1441,1.2938,2.2094,1.9947,0.2591,1.484,1.2766,31.799,1.4969,1.0792,0.2379,0.8873,1.4592
"ILL_624_AGL",1.1088,1.9332,3.2301,0.2289,4.4967,1.0774,1.0517,1.1592,2.0092,1.8368,0.2445,1.3419,1.178,28.9736,1.3423,0.9428,0.215,0.7815,1.3071
"ILL_6821_AGL",1.1428,2.0829,3.4575,0.2496,4.8204,1.1449,0.9358,1.2628,2.1477,1.9486,0.2592,1.4465,1.2076,29.9045,1.4621,1.0278,0.2214,0.8343,1.4089
"ILL_6853_AGL",1.1459,1.9804,3.2428,0.2415,4.6193,1.1205,0.9493,1.2055,2.0615,1.8723,0.2511,1.3844,1.225,29.7938,1.3869,1.0239,0.2219,0.8195,1.3369
"ILL_7089_AGL",1.153,2.0397,3.3574,0.2589,4.6078,1.1356,1.0654,1.2165,2.0736,1.8856,0.2663,1.3942,1.1951,29.848,1.4173,1.0078,0.2256,0.8413,1.3675
"ILL_7558_AGL",1.1125,1.928,3.1338,0.2444,4.3513,1.0782,0.997,1.1604,1.9801,1.8022,0.2481,1.3396,1.1878,28.5468,1.3443,0.9506,0.2137,0.7939,1.2964
"ILL_7663_AGL",1.1261,2.0538,3.2927,0.2424,4.5966,1.1284,1.1153,1.2138,2.0736,1.8859,0.2435,1.4021,1.2113,29.9539,1.4102,1.02,0.2193,0.8228,1.3563
"ILL_7668_AGL",1.148,2.1257,3.4029,0.2403,4.7252,1.161,1.2407,1.2246,2.1148,1.8835,0.2494,1.4089,1.2161,30.8088,1.4176,1.0346,0.229,0.8378,1.3805
"ILL_7716_AGL",1.1535,1.9945,3.2486,0.2392,4.5642,1.1155,0.9661,1.2032,2.0671,1.8944,0.2493,1.3967,1.2232,29.4544,1.3875,1.0183,0.2173,0.7975,1.3531
"ILL_7747_AGL",1.1545,2.0467,3.3809,0.25,4.7161,1.15,0.9803,1.2308,2.1038,1.9008,0.2564,1.4118,1.2022,29.8674,1.4211,1.0288,0.224,0.834,1.3865
"ILL_7978_AGL",1.2616,2.2556,3.6368,0.267,4.9757,1.2422,1.1529,1.2911,2.2312,1.9698,0.2747,1.4861,1.2727,31.8495,1.4965,1.1088,0.2478,0.8926,1.4615
"ILL_7979_AGL",1.178,2.1536,3.4376,0.2477,4.7885,1.1736,1.1381,1.2398,2.144,1.9091,0.2643,1.4336,1.2389,30.6895,1.4337,1.0381,0.2282,0.8443,1.3972
"ILL_8007_AGL",1.1295,2.0578,3.3189,0.2455,4.692,1.1113,0.9479,1.2368,2.0917,1.8922,0.2537,1.4159,1.2118,29.9874,1.4003,1.0304,0.217,0.8211,1.3778
"ILL_8009_AGL",1.071,1.9012,3.2339,0.2418,4.4314,1.0693,0.9937,1.1722,1.9869,1.8127,0.2374,1.3425,1.146,28.3904,1.3448,0.9634,0.2098,0.7773,1.3082
"ILL_8010_AGL",1.1176,2.0996,3.3658,0.24,4.6227,1.1253,1.2341,1.1973,2.0577,1.8354,0.2334,1.3823,1.2039,30.16,1.3907,0.9554,0.2218,0.8007,1.3441
"ILL_8072_AGL",1.0622,1.846,2.9953,0.2288,4.2885,1.0542,0.9848,1.1268,1.932,1.7518,0.2293,1.2944,1.1676,28.3138,1.2947,0.952,0.2077,0.7424,1.247
"ILL_8174_AGL",1.2728,2.1642,3.5288,0.259,4.8879,1.23,1.0967,1.2785,2.207,2.0032,0.2785,1.4715,1.2733,31.6104,1.488,1.0909,0.2407,0.8934,1.4533
"ILL_8595_AGL",1.2818,2.2019,3.576,0.2635,4.8997,1.2383,1.0947,1.2769,2.2016,1.987,0.2801,1.4691,1.2717,31.7334,1.4894,1.0861,0.2478,0.8907,1.4533
"ILL_9_AGL",1.0784,1.9081,3.1142,0.2374,4.3867,1.0789,1.0283,1.1661,1.9748,1.7876,0.2405,1.3244,1.1745,28.717,1.3456,0.9397,0.2103,0.7967,1.2885
"ILL_975_AGL",1.1443,2.1455,3.4294,0.2373,4.8464,1.1455,1.1127,1.2625,2.1529,1.9351,0.2519,1.446,1.2279,30.943,1.4695,1.0089,0.2225,0.8483,1.4043
"ILL_9888_AGL",1.2546,2.4169,3.7888,0.2741,5.2702,1.2591,1.147,1.3811,2.3354,2.0784,0.2736,1.5749,1.288,33.3087,1.5975,1.1341,0.2494,0.9312,1.5464
"ILL_9932_AGL",1.0798,1.954,3.2226,0.2451,4.4391,1.0749,0.9812,1.1724,1.993,1.7986,0.2454,1.343,1.1656,28.6954,1.351,0.9497,0.2099,0.7902,1.3085
"ILL_9945_AGL",1.1945,2.2841,3.6633,0.2642,5.0563,1.1955,1.0709,1.3266,2.2524,1.9969,0.2623,1.5179,1.2593,31.7773,1.5242,1.0842,0.2337,0.8839,1.4788
"ILL_9977_AGL",1.082,1.9631,3.1731,0.2368,4.4565,1.0713,1.0614,1.1684,1.9958,1.8111,0.2388,1.3516,1.1655,29.0106,1.3538,0.9635,0.209,0.7749,1.3043
"ILL_9997_AGL",1.1071,2.0104,3.2359,0.2402,4.5246,1.1037,1.0903,1.1953,2.0391,1.8399,0.242,1.3732,1.1994,29.5806,1.3879,0.9944,0.213,0.7901,1.3264
"ILWL_118_AGL",1.0973,1.9622,3.2119,0.2346,4.5072,1.0817,1.1498,1.1858,2.0261,1.8306,0.2484,1.3595,1.199,29.6497,1.3629,0.9839,0.2107,0.8006,1.3077
"Indianhead_AGL",1.268,2.2193,3.6375,0.2631,4.9718,1.2298,1.0155,1.3153,2.2438,2.0342,0.2816,1.501,1.2209,31.8375,1.5428,1.161,0.2397,0.9075,1.5052
"IPL_220_AGL",1.1101,1.9895,3.2692,0.2395,4.5636,1.1141,1.0876,1.1957,2.0459,1.8717,0.2381,1.3835,1.1703,29.2939,1.3997,0.9947,0.217,0.8075,1.3424
"Laird_AGL",1.2232,2.0574,3.3576,0.251,4.7139,1.1645,1.0665,1.2532,2.1326,1.9389,0.2578,1.432,1.2337,30.5497,1.4423,1.0189,0.2316,0.8685,1.4066
"LIRL.22.46_AGL",1.1571,2.0377,3.315,0.2437,4.592,1.132,1.0848,1.2078,2.0715,1.8833,0.2608,1.3896,1.2303,30.0911,1.3898,1.0057,0.2229,0.8281,1.3591
"PI_163589_AGL",1.1126,2.0558,3.2074,0.2277,4.6124,1.1081,1.0859,1.2078,2.0736,1.8741,0.2358,1.3958,1.2347,30.1507,1.3998,0.983,0.2184,0.8029,1.3512
"PI_169534_LSP_AGL",1.0909,1.9194,3.1767,0.2491,4.4347,1.0908,0.9311,1.1689,2.0029,1.8494,0.2451,1.3559,1.1474,28.3744,1.371,0.9833,0.2144,0.8068,1.3296
"PI_175754_LSP_AGL",1.312,2.3901,3.7558,0.2784,5.1007,1.27,1.3069,1.3373,2.2922,2.0596,0.2618,1.5372,1.3098,33.4058,1.5737,1.0974,0.2537,0.9207,1.5223
"PI_177430_LSP_AGL",1.2217,2.1617,3.5184,0.2506,4.8173,1.1893,1.1888,1.2569,2.1683,1.9717,0.2571,1.4517,1.248,31.1139,1.4758,1.0175,0.2357,0.8692,1.4343
"PI_178939_LSP_AGL",1.1267,1.9029,3.2103,0.2481,4.4781,1.1098,0.9493,1.1841,2.0247,1.8785,0.2494,1.3718,1.1643,28.6801,1.3984,1.0116,0.2153,0.8087,1.3294
"PI_178952_AGL",1.2167,2.1345,3.5311,0.2625,4.7676,1.1906,1.1565,1.2497,2.1478,1.9483,0.257,1.4368,1.2254,30.8316,1.4729,1.0335,0.2372,0.8633,1.4187
"PI_178971_LSP_AGL",1.1643,2.0082,3.4301,0.2664,4.6024,1.1354,0.9223,1.2162,2.0757,1.91,0.2666,1.3922,1.203,29.4871,1.4247,1.0317,0.2266,0.8283,1.3664
"PI_179324_LSP_AGL",1.1223,1.9951,3.3392,0.251,4.583,1.1034,0.9913,1.2148,2.0614,1.8776,0.2572,1.3827,1.1914,29.3664,1.3997,0.9731,0.2165,0.8338,1.359
"PI_179330_AGL",1.1612,2.0591,3.4948,0.2696,4.6615,1.1652,1.0238,1.2387,2.1005,1.9041,0.2717,1.4129,1.2106,29.9791,1.446,1.0507,0.2297,0.8755,1.3827
"PI_181771_LSP_AGL",1.1919,2.1556,3.5732,0.2563,4.7866,1.1649,0.9679,1.2516,2.1523,1.9572,0.2715,1.4333,1.2495,30.5457,1.447,1.08,0.2313,0.8528,1.4199
"PI_181886_LSP_AGL",1.1047,1.9063,3.1377,0.2345,4.4809,1.0713,0.9204,1.1753,2.0021,1.8267,0.2475,1.3498,1.199,28.6601,1.3415,0.9355,0.2108,0.7936,1.3012
"PI_182217_LSP_AGL",1.3496,2.4055,3.9383,0.2939,5.1916,1.2795,1.184,1.3509,2.3333,2.0945,0.2872,1.546,1.3244,33.4746,1.5938,1.1473,0.2622,0.9497,1.5407
"PI_193546_AGL",1.1469,2.0828,3.3807,0.239,4.7185,1.1252,1.0474,1.2448,2.1166,1.9129,0.239,1.4268,1.2212,30.0408,1.4337,1.0284,0.2195,0.8276,1.3904
"PI_193547_LSP_AGL",1.1257,1.8842,3.2399,0.2508,4.4228,1.0965,0.9245,1.1696,2.0008,1.8607,0.2559,1.3442,1.1441,28.1734,1.3724,0.9788,0.2191,0.7958,1.332
"PI_193548_LSP_AGL",1.2481,2.3266,3.788,0.2597,5.1421,1.2362,1.0974,1.3375,2.2862,2.0432,0.2726,1.5166,1.27,32.6201,1.5496,1.0934,0.2474,0.8984,1.5302
"PI_193550_AGL",1.2819,2.4,3.8736,0.2647,5.2055,1.2624,1.2134,1.3515,2.3165,2.0702,0.277,1.5397,1.2822,33.2659,1.5885,1.1131,0.254,0.9094,1.5524
"PI_207492_LSP_AGL",1.2071,2.0724,3.5885,0.2679,4.7258,1.1806,0.8898,1.2231,2.1229,1.9507,0.2905,1.3982,1.2244,29.8787,1.4362,1.0622,0.2321,0.8694,1.3954
"PI_209858_LSP_AGL",1.273,2.379,3.6097,0.2468,5.0577,1.2388,1.3965,1.3216,2.2785,2.0269,0.2466,1.5274,1.3257,33.2655,1.5576,1.0704,0.2431,0.8994,1.4893
"PI_211052_LSP_AGL",1.1583,2.0324,3.4579,0.2532,4.6583,1.1177,1.0054,1.206,2.0721,1.9039,0.266,1.3813,1.1702,29.6138,1.4173,0.991,0.2261,0.8277,1.3773
"PI_212100_LSP_AGL",1.2039,2.1213,3.4963,0.2651,4.7716,1.1616,1.0851,1.2398,2.1293,1.9399,0.2599,1.4224,1.2197,30.7247,1.4529,1.0273,0.2311,0.8386,1.3993
"PI_212610_LSP_AGL",1.2066,2.0543,3.4874,0.2635,4.7065,1.1513,0.9908,1.2295,2.1074,1.9318,0.2778,1.4066,1.2099,30.2838,1.4292,1.0699,0.2319,0.8489,1.3866
"PI_217949_LSP_AGL",1.122,2.0201,3.4131,0.2211,4.591,1.1181,1.0901,1.1895,2.0692,1.8616,0.2546,1.3725,1.1976,28.9551,1.3744,0.936,0.2134,0.7972,1.3522
"PI_238758_LSP_AGL",1.2227,2.1253,3.4308,0.2512,4.8965,1.1909,0.9373,1.284,2.1936,1.9887,0.2622,1.4689,1.2535,31.0249,1.4755,1.0866,0.2391,0.8752,1.4462
"PI_244046_AGL",1.3641,2.6575,4.1108,0.2908,5.4737,1.3106,1.3477,1.4239,2.4325,2.1663,0.278,1.6309,1.3507,35.1841,1.6704,1.1501,0.2634,0.9783,1.6323
"PI_250156_LSP_AGL",1.1139,1.9351,3.2719,0.2409,4.5632,1.1097,0.9703,1.1965,2.0453,1.8805,0.2489,1.3748,1.1618,29.0411,1.394,0.9992,0.2176,0.7985,1.3522
"PI_250158_LSP_AGL",1.0682,1.8761,3.1137,0.2275,4.3335,1.0563,1.0962,1.1375,1.9493,1.7703,0.2413,1.3057,1.1415,28.3155,1.3096,0.9292,0.2087,0.7652,1.2757
"PI_251248_LSP_AGL",1.3192,2.4347,3.8558,0.2821,5.1391,1.271,1.2902,1.3419,2.2922,2.0419,0.2702,1.5365,1.2936,33.2674,1.5844,1.0534,0.2574,0.9137,1.5264
"PI_273664_LSP_AGL",1.1182,1.9055,3.2584,0.2471,4.5362,1.102,0.8485,1.1954,2.0397,1.8948,0.2496,1.3775,1.1463,28.3812,1.3954,1.0219,0.2166,0.7906,1.3499
"PI_280686_AGL",1.1932,2.2195,3.554,0.2661,4.8275,1.1629,1.1916,1.239,2.1344,1.9262,0.2694,1.4364,1.2246,31.1002,1.4578,1.0069,0.2347,0.8642,1.4031
"PI_283604_LSP_AGL",1.2121,2.3617,3.6038,0.2481,5.085,1.2078,1.2016,1.3037,2.2456,1.987,0.2599,1.5045,1.3135,32.6666,1.5113,1.0746,0.2401,0.8909,1.4635
"PI_289066_AGL",1.2712,2.3147,3.5941,0.2439,4.9984,1.2178,1.3701,1.3015,2.2378,1.9873,0.246,1.4946,1.3068,32.9697,1.5263,1.046,0.2398,0.8798,1.46
"PI_289073_LSP_AGL",1.1194,2.0374,3.2375,0.2406,4.568,1.1128,1.0286,1.2152,2.0427,1.8699,0.235,1.3914,1.1696,29.4525,1.4204,0.9839,0.2172,0.8026,1.3712
"PI_289079_LSP_AGL",1.1243,2.0012,3.2415,0.231,4.5957,1.1096,1.0197,1.2,2.0424,1.8668,0.2499,1.3817,1.166,29.4604,1.3968,0.9875,0.222,0.8044,1.3585
"PI_290716_LSP_AGL",1.178,1.9694,3.3798,0.2551,4.5207,1.1247,0.9802,1.1823,2.0477,1.8869,0.2655,1.3656,1.1934,29.3483,1.3868,1.0097,0.2272,0.807,1.3498
"PI_297285_LSP_AGL",1.1773,2.1913,3.4973,0.2583,4.9071,1.1869,1.0814,1.2727,2.1816,1.9633,0.2569,1.4675,1.2498,31.4669,1.4715,1.0866,0.2388,0.876,1.4307
"PI_297287_AGL",1.2322,2.3848,3.7264,0.2683,5.1001,1.2448,1.0799,1.3063,2.2647,2.0212,0.2776,1.5208,1.298,32.5838,1.5234,1.1389,0.2501,0.9145,1.4883
"PI_297754_LSP_AGL",1.0496,1.825,3.0862,0.2457,4.2683,1.0408,0.9275,1.1441,1.9342,1.7856,0.232,1.3106,1.1324,27.8067,1.3267,0.9359,0.2063,0.7608,1.2692
"PI_297767_AGL",1.1946,2.184,3.4918,0.2547,4.9138,1.1925,1.0892,1.2706,2.1794,1.9658,0.2639,1.4607,1.2491,31.3507,1.4806,1.0337,0.2379,0.8803,1.4318
"PI_297772_LSP_AGL",1.2096,2.2752,3.6085,0.2556,4.9666,1.1949,1.2162,1.2948,2.2156,1.9607,0.259,1.4812,1.2619,31.7226,1.4985,1.043,0.2353,0.8848,1.4578
"PI_297783_AGL",1.2065,2.3101,3.706,0.2611,5.0361,1.2149,1.1648,1.3008,2.2366,1.9952,0.2639,1.4875,1.2489,32.1522,1.5182,1.0915,0.242,0.8756,1.4805
"PI_297787_LSP_AGL",1.1544,2.0412,3.4633,0.2595,4.6568,1.1327,1.0296,1.2164,2.0799,1.9095,0.2646,1.3873,1.2002,30.0228,1.4299,1.0097,0.2288,0.8395,1.374
"PI_298023_LSP_AGL",1.223,2.2672,3.6148,0.2672,4.946,1.2253,1.1532,1.2881,2.2154,2.0007,0.2658,1.4894,1.2675,31.9136,1.5109,1.1019,0.2409,0.8918,1.4589
"PI_298121_LSP_AGL",1.1571,2.1015,3.4174,0.2416,4.7923,1.1511,1.0777,1.2447,2.1408,1.9523,0.2575,1.4396,1.2386,30.6375,1.4442,1.0332,0.2233,0.8369,1.3984
"PI_298122_LSP_AGL",1.0979,1.954,3.1966,0.2226,4.5406,1.0962,0.8827,1.1933,2.0363,1.8528,0.2502,1.3695,1.1605,28.3298,1.3837,0.9424,0.2084,0.7941,1.3516
"PI_298357_LSP_AGL",1.3323,2.465,3.8706,0.2646,5.1555,1.3099,1.3546,1.3332,2.3369,2.0663,0.276,1.5515,1.3288,33.4985,1.5673,1.1473,0.2604,0.9291,1.5444
"PI_298631_LSP_AGL",1.2386,2.2137,3.4302,0.2368,4.8471,1.1847,1.2308,1.2563,2.1826,1.9374,0.2612,1.4524,1.2948,31.8866,1.4567,1.0029,0.2364,0.8554,1.4157
"PI_298644_LSP_AGL",1.2775,2.2201,3.4388,0.2314,4.9612,1.221,1.2722,1.2729,2.2167,1.9812,0.2651,1.4711,1.3129,32.6968,1.4829,1.041,0.2433,0.8946,1.4345
"PI_298645_AGL",1.1825,2.0979,3.3689,0.2331,4.7457,1.137,1.0543,1.2311,2.1272,1.9047,0.2593,1.4204,1.2612,30.8039,1.4229,1.021,0.2249,0.8294,1.374
"PI_298921_AGL",1.1917,2.0588,3.3831,0.2424,4.8042,1.1495,0.8859,1.2528,2.1381,1.9554,0.2669,1.439,1.2353,29.7673,1.4486,1.0178,0.2207,0.8563,1.4034
"PI_298922_LSP_AGL",1.1318,1.9698,3.2845,0.2372,4.5879,1.1097,1.0425,1.1952,2.0469,1.8528,0.2491,1.3746,1.2006,29.5717,1.369,0.9919,0.2165,0.8003,1.3307
"PI_298923_LSP_AGL",1.3267,2.4678,3.7948,0.2648,5.1893,1.303,1.505,1.3276,2.3196,2.0401,0.2788,1.5342,1.3431,34.47,1.5604,1.1438,0.262,0.9374,1.5111
"PI_299116_LSP_AGL",1.1172,2.0376,3.3177,0.2337,4.6009,1.1123,1.0321,1.2066,2.0553,1.8556,0.2477,1.388,1.2017,29.5178,1.385,0.9936,0.2168,0.792,1.3512
"PI_299120_LSP_AGL",1.079,1.8975,3.1416,0.2291,4.4024,1.0541,0.9828,1.1569,1.9737,1.7978,0.2451,1.3282,1.1849,28.465,1.3303,0.9308,0.2061,0.7596,1.2785
"PI_299121_LSP_AGL",1.1258,2.0525,3.3746,0.2447,4.6848,1.1097,0.9065,1.231,2.0889,1.9016,0.2483,1.413,1.2219,29.6161,1.4202,0.984,0.2172,0.807,1.3698
"PI_299126_LSP_AGL",1.1277,2.0226,3.3154,0.2299,4.6307,1.134,1.0849,1.1917,2.0711,1.8574,0.2643,1.379,1.2296,29.8251,1.3772,0.9996,0.2217,0.8047,1.3348
"PI_299163_LSP_AGL",1.2363,2.2375,3.4408,0.2416,4.9101,1.1882,1.1566,1.2656,2.1903,1.9732,0.2625,1.4662,1.2961,31.9842,1.4626,1.0455,0.2358,0.8692,1.4338
"PI_299164_LSP_AGL",1.1632,2.0448,3.3045,0.2354,4.6387,1.1366,1.1059,1.1925,2.0754,1.8714,0.2654,1.3815,1.2324,30.2695,1.3788,1.0073,0.2275,0.8317,1.3449
"PI_299165_AGL",1.1182,1.9844,3.217,0.2362,4.6171,1.126,1.0363,1.2025,2.0683,1.8958,0.2452,1.3876,1.2245,29.9351,1.3951,1.0122,0.2187,0.8166,1.3419
"PI_299177_LSP_AGL",1.1364,1.9799,3.2284,0.2359,4.5509,1.1262,1.1291,1.1915,2.0456,1.8721,0.2443,1.3733,1.1937,29.8636,1.391,0.9985,0.2251,0.8193,1.3458
"PI_299237_LSP_AGL",1.191,2.1322,3.5846,0.2629,4.7966,1.1557,0.9215,1.2482,2.1457,1.9471,0.2762,1.4274,1.2353,30.2947,1.4396,1.0518,0.2345,0.869,1.4158
"PI_299289_AGL",1.2511,2.2234,3.5771,0.2718,4.7725,1.1934,1.2701,1.259,2.1606,1.9484,0.262,1.4573,1.2445,31.5853,1.4883,1.0393,0.2434,0.8621,1.435
"PI_299312_AGL",1.2644,2.4015,3.7593,0.2764,5.1824,1.2581,1.1154,1.3408,2.2935,2.0472,0.2706,1.5407,1.3101,33.155,1.5576,1.1681,0.2521,0.9268,1.5148
"PI_299345_AGL",1.2188,2.1701,3.4398,0.2404,4.8443,1.1881,1.156,1.2602,2.175,1.9566,0.2517,1.4548,1.2658,31.5434,1.4733,1.068,0.2382,0.8567,1.4245
"PI_299351_LSP_AGL",1.2262,2.1018,3.5419,0.2691,4.7363,1.1759,1.0901,1.245,2.1415,1.9547,0.2653,1.4269,1.2259,30.6175,1.4555,1.0378,0.2347,0.855,1.4136
"PI_299366_LSP_AGL",1.1157,1.9887,3.2038,0.227,4.5902,1.107,1.0469,1.1823,2.0478,1.8629,0.239,1.3734,1.2087,29.3633,1.3696,1.0021,0.217,0.801,1.3305
"PI_299375_LSP_AGL",1.1752,2.0713,3.3634,0.2502,4.6955,1.1406,1.094,1.2367,2.106,1.926,0.2447,1.4192,1.2127,30.0112,1.4371,1.006,0.2264,0.8519,1.392
"PI_300250_LSP_AGL",1.1342,2.121,3.4308,0.2507,4.7379,1.12,1.0478,1.2563,2.1171,1.919,0.2425,1.436,1.2099,29.8624,1.4512,1.0145,0.2174,0.864,1.4066
"PI_302398_LSP_AGL",1.0121,1.79,2.9393,0.228,4.1405,1.018,1.0408,1.108,1.8853,1.7044,0.2224,1.2698,1.1365,27.1524,1.2662,0.8771,0.2024,0.7509,1.2247
"PI_308614_LSP_AGL",1.1508,2.0966,3.4247,0.2457,4.7222,1.15,1.1077,1.2478,2.1208,1.9226,0.2502,1.4295,1.2031,29.9299,1.4509,1.0239,0.2244,0.857,1.4112
"PI_311107_LSP_AGL",1.1196,2.0753,3.2311,0.2263,4.6223,1.1192,1.1305,1.2104,2.0796,1.876,0.2322,1.396,1.2361,30.227,1.4048,0.9917,0.2184,0.8078,1.3502
"PI_312175_LSP_AGL",1.1677,2.0611,3.472,0.2734,4.7186,1.151,0.8969,1.2508,2.1313,1.9464,0.2519,1.4337,1.2092,30.3029,1.4554,1.038,0.2358,0.8394,1.4027
"PI_320935_LSP_AGL",1.1108,1.768,3.0161,0.2395,4.1917,1.0562,0.9712,1.1288,1.9251,1.796,0.2392,1.3001,1.1492,27.6321,1.3152,0.9585,0.211,0.7825,1.2653
"PI_320936_LSP_AGL",1.2113,2.2555,3.6261,0.2508,4.9866,1.2105,1.0912,1.2964,2.2217,2.0241,0.2722,1.4934,1.2346,31.7388,1.5275,1.0951,0.2357,0.9036,1.4873
"PI_320937_LSP_AGL",1.1875,2.1101,3.3855,0.2555,4.7089,1.1709,0.9368,1.2663,2.1446,1.9483,0.2547,1.4531,1.2018,29.8895,1.4983,1.0104,0.2225,0.8663,1.4432
"PI_320941_LSP_AGL",1.2008,2.0548,3.4622,0.2549,4.6601,1.1603,1.1198,1.2251,2.1115,1.9473,0.2647,1.4072,1.2049,30.3421,1.4512,1.0389,0.2306,0.8458,1.3946
"PI_320945_LSP_AGL",1.0921,1.9304,3.1504,0.2287,4.4368,1.097,1.0366,1.1782,2.0126,1.8428,0.2403,1.3589,1.1812,28.7303,1.3713,0.9661,0.207,0.791,1.3202
"PI_320946_LSP_AGL",1.0451,1.9805,3.1818,0.244,4.4807,1.0734,1.0237,1.1868,1.9953,1.8327,0.2322,1.3626,1.162,28.6415,1.3866,0.9599,0.2086,0.8062,1.3121
"PI_320952_LSP_AGL",1.2881,2.3023,3.7299,0.2658,5.082,1.2631,1.0017,1.3528,2.3022,2.1008,0.2798,1.5508,1.2413,32.0774,1.5987,1.1897,0.2433,0.9329,1.5619
"PI_320953_LSP_AGL",1.2312,2.1297,3.5878,0.2593,4.8477,1.1883,0.8978,1.2824,2.1823,2.0132,0.2676,1.4633,1.2021,30.4998,1.4929,1.0952,0.2361,0.8694,1.475
"PI_320954_LSP_AGL",1.1649,2.02,3.2795,0.2362,4.6452,1.15,0.9784,1.2393,2.0905,1.9029,0.2444,1.4061,1.1834,29.6942,1.4425,0.9969,0.2226,0.815,1.4004
"PI_329157_LSP_AGL",1.2526,2.2464,3.5891,0.2674,5.0079,1.2124,1.0642,1.3134,2.2405,2.058,0.2676,1.5118,1.273,32.1252,1.5402,1.1015,0.2406,0.914,1.4906
"PI_329167_LSP_AGL",1.3068,2.4605,3.8549,0.2761,5.2799,1.2895,1.242,1.3696,2.3369,2.1037,0.2799,1.5745,1.3165,33.8932,1.603,1.1769,0.2574,0.9648,1.5576
"PI_339266_LSP_AGL",1.181,2.0578,3.3456,0.2457,4.678,1.166,1.0086,1.2298,2.1175,1.9254,0.2473,1.4223,1.2388,30.2039,1.4349,1.0604,0.2316,0.8383,1.383
"PI_339283_LSP_AGL",1.1582,2.0745,3.3786,0.2491,4.6623,1.1457,1.0836,1.2252,2.0977,1.9121,0.2515,1.4104,1.1985,29.9443,1.4385,1.0175,0.2263,0.8476,1.3965
"PI_339285_AGL",1.1599,2.1112,3.4196,0.2416,4.7022,1.1381,1.19,1.2292,2.1113,1.9054,0.2539,1.4072,1.2416,30.6053,1.4284,0.992,0.2265,0.8399,1.3883
"PI_339289_LSP_AGL",1.1719,2.1036,3.3936,0.2614,4.67,1.1337,1.0504,1.2221,2.0801,1.9186,0.2566,1.4053,1.2033,30.0458,1.4307,1.0084,0.2305,0.8504,1.3888
"PI_339292_LSP_AGL",1.2469,2.2825,3.7177,0.2762,4.9837,1.2348,1.1722,1.2987,2.2348,2.0109,0.2763,1.4945,1.2631,32.1644,1.5336,1.1184,0.2488,0.9065,1.4719
"PI_339296_AGL",1.1609,1.9232,3.3085,0.2497,4.4899,1.1168,0.9163,1.1907,2.0319,1.8742,0.2494,1.3654,1.1756,28.6045,1.3843,0.9834,0.2216,0.7947,1.3455
"PI_343026_LSP_AGL",1.1456,2.0113,3.4396,0.2522,4.6654,1.1413,1.0054,1.2146,2.0867,1.9129,0.2628,1.3824,1.2101,29.9089,1.4127,1.0425,0.2284,0.8353,1.3657
"PI_345627_LSP_AGL",1.2612,2.24,3.5322,0.2607,4.9688,1.212,1.1184,1.3038,2.2295,2.0287,0.2573,1.5118,1.2751,31.6558,1.5239,1.0852,0.24,0.9103,1.4724
"PI_358602_LSP_AGL",1.1285,2.0732,3.3693,0.2413,4.6012,1.1212,1.1106,1.2005,2.0626,1.8709,0.2394,1.3919,1.1911,29.7036,1.4094,0.992,0.2232,0.8177,1.3588
"PI_368647_LSP_AGL",1.0599,1.8599,3.0662,0.2315,4.3117,1.0461,0.9422,1.1393,1.9319,1.7959,0.2334,1.3159,1.1339,27.7982,1.3216,0.9639,0.2079,0.7874,1.2772
"PI_368651_LSP_AGL",1.1498,1.9733,3.3377,0.2371,4.5433,1.123,1.0322,1.1833,2.0429,1.8595,0.2494,1.3611,1.1792,29.467,1.3851,0.9945,0.2245,0.7944,1.3382
"PI_370481_LSP_AGL",1.1559,2.2097,3.4477,0.2508,4.9741,1.185,0.9339,1.2952,2.207,1.9976,0.2455,1.4933,1.2551,31.1407,1.5032,1.0761,0.2303,0.8741,1.4521
"PI_374116_LSP_AGL",1.1209,2.0571,3.2633,0.2335,4.61,1.1306,1.081,1.2187,2.0634,1.8703,0.2352,1.3976,1.1754,29.5205,1.4247,0.9845,0.22,0.8156,1.3784
"PI_374117_LSP_AGL",1.1405,2.195,3.4081,0.2414,4.8166,1.1414,1.116,1.2669,2.152,1.9461,0.2443,1.4652,1.2369,30.8705,1.4699,1.0301,0.2203,0.8587,1.4222
"PI_374118_AGL",1.1695,2.1086,3.4288,0.2474,4.755,1.1669,1.11,1.2388,2.1297,1.9278,0.2452,1.431,1.2236,30.3107,1.4548,1.0276,0.2237,0.8308,1.3951
"PI_374120_LSP_AGL",1.1574,1.9664,3.3032,0.2418,4.608,1.1452,0.9506,1.2119,2.0841,1.9059,0.2531,1.3954,1.216,29.413,1.4114,1.013,0.2252,0.8162,1.3647
"PI_374121_AGL",1.1591,2.1894,3.4816,0.2607,4.8482,1.1726,1.0245,1.2687,2.1612,1.9514,0.2594,1.4634,1.2381,30.725,1.4752,1.049,0.2341,0.866,1.4308
"PI_379368_LSP_AGL",1.1816,2.2354,3.5522,0.2644,4.9227,1.1968,1.053,1.2868,2.2018,1.9834,0.265,1.484,1.2611,31.0946,1.5004,1.0695,0.2362,0.8832,1.4533
"PI_383682_LSP_AGL",1.3252,2.3643,3.7498,0.2869,5.0271,1.2472,1.2209,1.3306,2.29,2.0591,0.2702,1.5305,1.3151,33.5317,1.5651,1.0948,0.2605,0.9202,1.5274
"PI_420818_AGL",1.1608,2.1403,3.3491,0.2235,4.7016,1.1418,1.1773,1.2144,2.1121,1.8843,0.2452,1.4042,1.2679,30.5541,1.3944,0.9628,0.2251,0.8294,1.379
"PI_420924_LSP_AGL",1.1801,2.1629,3.5033,0.2457,4.9467,1.1814,0.9477,1.2854,2.1934,1.996,0.2582,1.4771,1.2564,30.8731,1.4928,1.0622,0.2268,0.8533,1.4365
"PI_420925_LSP_AGL",1.1769,2.0953,3.4541,0.2426,4.817,1.1706,0.9465,1.2585,2.1576,1.9514,0.2497,1.4458,1.2138,30.1401,1.4768,1.0101,0.224,0.8294,1.4235
"PI_420929_LSP_AGL",1.1706,2.1095,3.4648,0.2455,4.854,1.161,1.0683,1.2646,2.1483,1.9689,0.2573,1.4508,1.216,30.6902,1.4784,1.029,0.2249,0.8665,1.4184
"PI_426202_LSP_AGL",1.1676,2.097,3.4891,0.2477,4.7341,1.1612,1.1742,1.2159,2.1234,1.9456,0.2572,1.4071,1.2211,30.4441,1.437,1.0182,0.2285,0.8369,1.3863
"PI_426778_LSP_AGL",1.1724,1.9272,3.2638,0.2368,4.5332,1.1232,0.9506,1.2016,2.0599,1.8982,0.2517,1.383,1.2049,29.1596,1.402,1.0193,0.2203,0.8077,1.3504
"PI_426784_LSP_AGL",1.0289,1.8214,2.9407,0.2163,4.1794,1.026,1.1136,1.1077,1.9085,1.7728,0.2225,1.2929,1.1206,27.8524,1.3011,0.9443,0.2007,0.7528,1.258
"PI_426797_LSP_AGL",1.023,1.7745,2.9397,0.2277,4.1589,1.0143,0.9638,1.1162,1.888,1.7529,0.2197,1.2879,1.1084,26.9207,1.2881,0.9186,0.1959,0.7463,1.2457
"PI_426807_LSP_AGL",1.0857,1.8363,3.2109,0.2488,4.3661,1.0794,0.9602,1.1557,1.9758,1.806,0.2455,1.3238,1.1504,28.1022,1.327,0.9816,0.2166,0.7949,1.2934
"PI_431618_LSP_AGL",1.1963,2.1385,3.484,0.2436,4.76,1.1706,1.1883,1.2306,2.1406,1.9029,0.2629,1.4181,1.266,30.9691,1.4358,1.0036,0.2333,0.8425,1.3794
"PI_431622_LSP_AGL",1.1302,1.9919,3.2507,0.262,4.4597,1.1153,1.1072,1.1791,2.0174,1.8669,0.2474,1.3561,1.1666,29.3029,1.3928,0.9555,0.2228,0.8197,1.3454
"PI_431630_LSP_AGL",1.1451,1.9614,3.3595,0.2522,4.5555,1.1112,0.9529,1.1949,2.0561,1.9133,0.261,1.3714,1.1798,29.2247,1.409,1.009,0.2213,0.8156,1.3499
"PI_431633_LSP_AGL",1.2259,2.2548,3.6015,0.2608,4.9662,1.2137,1.169,1.2914,2.2127,2.0126,0.2669,1.4882,1.2704,31.9276,1.5136,1.0957,0.2403,0.9049,1.4607
"PI_431636_LSP_AGL",1.2289,2.3004,3.5802,0.2443,5.0072,1.2163,1.1326,1.3,2.2382,1.983,0.2509,1.5,1.3093,32.3101,1.5072,1.0749,0.2426,0.8763,1.4619
"PI_431643_LSP_AGL",1.2836,2.1964,3.7279,0.2702,5.014,1.2503,1.0373,1.3077,2.2454,2.0291,0.2883,1.4923,1.2817,32.093,1.5225,1.1236,0.2494,0.9067,1.4726
"PI_431662_LSP_AGL",1.1901,2.0564,3.4782,0.2671,4.676,1.17,1.0048,1.2217,2.1029,1.9345,0.2641,1.404,1.2003,29.8507,1.4355,1.0563,0.233,0.8396,1.3897
"PI_431663_LSP_AGL",1.1548,1.9784,3.3467,0.2675,4.5151,1.0991,0.8844,1.1877,2.0324,1.9151,0.2622,1.3709,1.1659,28.8793,1.3966,1.0709,0.2224,0.831,1.3487
"PI_431679_LSP_AGL",1.1722,2.1432,3.4296,0.2674,4.6927,1.134,1.0841,1.2343,2.1082,1.9435,0.2528,1.424,1.2156,30.4478,1.4505,1.0161,0.2273,0.8604,1.4044
"PI_431684_LSP_AGL",1.1096,1.8132,3.2012,0.2487,4.3685,1.0999,0.9076,1.1746,1.9913,1.8588,0.2489,1.3355,1.1429,28.0267,1.3707,0.9914,0.215,0.8051,1.3182
"PI_431705_LSP_AGL",1.0881,1.9062,3.1043,0.2562,4.2607,1.0631,1.0105,1.1334,1.935,1.8205,0.244,1.3111,1.1499,28.2627,1.3448,0.9965,0.213,0.8083,1.2851
"PI_431710_LSP_AGL",1.0867,1.9845,3.2429,0.2625,4.4203,1.0818,1.0302,1.1729,1.9981,1.8493,0.2466,1.3492,1.1646,28.8904,1.3789,0.9768,0.2181,0.8114,1.3238
"PI_431714_LSP_AGL",1.1806,2.0856,3.4724,0.2823,4.696,1.1652,0.9619,1.2495,2.1284,1.965,0.2673,1.4287,1.2064,30.2763,1.4759,1.0828,0.2328,0.8684,1.4097
"PI_431717_LSP_AGL",1.1479,1.9772,3.334,0.2748,4.4869,1.139,1.0252,1.198,2.0426,1.8944,0.2615,1.3699,1.1765,29.4476,1.4189,1.0542,0.2275,0.839,1.352
"PI_431728_LSP_AGL",1.1481,1.9953,3.3355,0.2681,4.5529,1.1262,0.9621,1.2164,2.0715,1.9157,0.2546,1.3957,1.1829,29.3722,1.4327,1.0233,0.2257,0.8317,1.3726
"PI_431731_LSP_AGL",1.2059,2.1157,3.4809,0.2848,4.6943,1.166,0.996,1.2556,2.1364,1.9827,0.2681,1.4408,1.2042,30.6445,1.4872,1.1134,0.2382,0.8838,1.4309
"PI_431739_LSP_AGL",1.2961,2.3469,3.8195,0.285,5.0629,1.2471,1.1129,1.3214,2.2913,2.075,0.2882,1.5195,1.2928,32.5256,1.5451,1.0926,0.2538,0.9346,1.5323
"PI_431753_LSP_AGL",1.2143,2.1638,3.4644,0.2808,4.7559,1.185,1.0855,1.2671,2.1699,1.9996,0.2615,1.4612,1.2366,31.2647,1.4989,1.0908,0.239,0.8851,1.4435
"PI_431756_LSP_AGL",1.1328,2.0435,3.4225,0.2659,4.6336,1.1281,0.986,1.2323,2.0949,1.9261,0.2535,1.4084,1.1958,29.7244,1.4392,1.0413,0.2237,0.8471,1.3831
"PI_431809_LSP_AGL",1.1703,2.0274,3.3954,0.2523,4.6393,1.1503,0.9879,1.2235,2.0981,1.9201,0.2617,1.4069,1.2213,29.9769,1.4205,1.0659,0.2286,0.8392,1.3779
"PI_431824_LSP_AGL",1.2667,2.1815,3.5814,0.2674,4.93,1.2147,0.9773,1.3063,2.2242,2.032,0.2706,1.4973,1.279,31.5714,1.5222,1.1089,0.2395,0.8937,1.4735
"PI_431863_LSP_AGL",1.1664,2.0078,3.3325,0.2406,4.6547,1.1588,1.0943,1.213,2.0933,1.9038,0.2463,1.39,1.2188,30.2616,1.4154,1.0164,0.23,0.8173,1.3605
"PI_431873_LSP_AGL",1.0799,1.8654,3.0304,0.2388,4.3206,1.0558,0.9747,1.1523,1.964,1.8471,0.2361,1.3326,1.1648,28.5156,1.3509,0.97,0.2098,0.7885,1.2963
"PI_431884_LSP_AGL",1.2713,2.2038,3.6722,0.2777,4.8894,1.2213,1.0346,1.2934,2.2111,2.0095,0.2736,1.4847,1.2548,31.3025,1.5246,1.0557,0.2448,0.8873,1.4686
"PI_431888_LSP_AGL",1.1273,1.8971,3.3218,0.2549,4.4846,1.0833,0.852,1.1833,2.0142,1.8896,0.2589,1.3544,1.1444,28.3077,1.3895,1.0267,0.2173,0.8118,1.3389
"PI_431893_LSP_AGL",1.1696,2.1092,3.5414,0.2677,4.7632,1.1465,1.0009,1.2386,2.1367,1.9659,0.2726,1.4298,1.2034,30.3707,1.4534,1.0826,0.2293,0.8456,1.4017
"PI_431923_LSP_AGL",1.1321,1.9559,3.4092,0.2603,4.4902,1.0996,0.9743,1.1704,2.0227,1.8563,0.2629,1.335,1.1921,29.462,1.376,0.9705,0.2277,0.8011,1.3162
"PI_431980_LSP_AGL",1.3299,2.3664,3.759,0.2797,5.127,1.2707,1.2001,1.3514,2.3077,2.0886,0.2716,1.5545,1.3026,32.9762,1.5869,1.1453,0.2556,0.9437,1.5387
"PI_432000_LSP_AGL",1.1277,1.8623,3.2854,0.2492,4.4198,1.088,0.9138,1.1782,2.0094,1.8655,0.2542,1.3363,1.163,28.7264,1.3712,0.9994,0.2197,0.7987,1.3273
"PI_432001_LSP_AGL",1.2869,2.4246,3.8703,0.2692,5.2135,1.2619,1.1599,1.3449,2.3256,2.0945,0.2824,1.5519,1.3165,32.8854,1.5822,1.127,0.2465,0.9326,1.536
"PI_432002_LSP_AGL",1.1724,2.1276,3.4436,0.274,4.6388,1.1454,1.0902,1.22,2.0941,1.9305,0.2571,1.4091,1.2036,30.2181,1.4411,1.0523,0.2307,0.8581,1.3918
"PI_432005_LSP_AGL",1.1912,2.0728,3.3831,0.257,4.6944,1.1495,1.0149,1.2286,2.0954,1.9144,0.2531,1.4073,1.2098,29.8272,1.4266,1.0485,0.2302,0.852,1.3876
"PI_432028_LSP_AGL",1.1267,1.9723,3.204,0.2645,4.3964,1.093,1.013,1.1645,1.9945,1.8625,0.2377,1.3427,1.1582,28.9017,1.3828,0.9905,0.2201,0.7996,1.3317
"PI_432033_LSP_AGL",1.2021,2.1241,3.4529,0.2696,4.699,1.1543,1.0662,1.2429,2.1267,1.9691,0.2601,1.4304,1.2038,30.29,1.4669,1.0444,0.2324,0.8616,1.4239
"PI_432085_LSP_AGL",1.2572,2.3463,3.6801,0.2722,5.1142,1.2281,1.0682,1.3486,2.2827,2.0763,0.2679,1.5514,1.2864,32.5985,1.5734,1.1409,0.2436,0.9373,1.5257
"PI_432106_LSP_AGL",1.2532,2.305,3.5384,0.2485,4.9804,1.2197,1.2992,1.2925,2.2314,1.9809,0.2459,1.4951,1.3055,32.6346,1.5107,1.0582,0.2478,0.8932,1.455
"PI_432124_LSP_AGL",1.1126,1.9018,3.1667,0.2628,4.3363,1.078,0.9561,1.1641,1.9728,1.8658,0.2493,1.3402,1.1486,28.2978,1.3775,1.0048,0.216,0.8178,1.3178
"PI_432145_LSP_AGL",1.1456,2.0954,3.39,0.2691,4.6146,1.1357,1.0344,1.2289,2.0915,1.9297,0.2571,1.4124,1.1948,29.9588,1.4561,1.0424,0.2251,0.8611,1.3875
"PI_432147_LSP_AGL",1.1191,1.9369,3.2931,0.2632,4.4458,1.114,0.9988,1.1779,2.0157,1.8658,0.2544,1.3514,1.1701,29.1135,1.3909,1.0207,0.2212,0.8087,1.3209
"PI_432184_LSP_AGL",1.2279,2.1642,3.5223,0.2652,4.742,1.1794,1.1225,1.2522,2.1473,1.9405,0.2642,1.4471,1.2503,31.1997,1.4652,1.0576,0.239,0.8679,1.4158
"PI_432188_LSP_AGL",1.1596,1.9921,3.2846,0.2471,4.5746,1.1172,1.01,1.2141,2.0695,1.9139,0.252,1.3931,1.2019,29.6106,1.4207,0.9961,0.2231,0.8409,1.3701
"PI_432190_LSP_AGL",1.1655,1.9936,3.268,0.2321,4.6713,1.1149,0.9782,1.2277,2.0956,1.9252,0.2454,1.4076,1.2216,30.1755,1.4211,0.9941,0.2229,0.8269,1.3714
"PI_432201_LSP_AGL",1.1395,1.9487,3.2781,0.2457,4.5039,1.1251,1.0848,1.1834,2.0365,1.8591,0.2485,1.3597,1.1906,29.284,1.3869,0.9626,0.2248,0.8112,1.3248
"PI_432212_LSP_AGL",1.226,2.1535,3.5144,0.2713,4.7301,1.1853,1.1311,1.2436,2.1509,1.9763,0.2632,1.4381,1.2211,30.7214,1.4708,1.0534,0.2407,0.8743,1.4351
"PI_432236_LSP_AGL",1.1654,1.9941,3.4046,0.2623,4.5491,1.131,1.0069,1.2017,2.0588,1.9051,0.2557,1.3796,1.1749,29.1844,1.4098,1.009,0.2249,0.8322,1.3712
"PI_432245_LSP_AGL",1.2047,2.1604,3.3926,0.2489,4.8113,1.1738,1.0416,1.2676,2.1679,1.9512,0.244,1.4622,1.2559,30.5964,1.4693,1.0408,0.2308,0.8621,1.42
"PI_432271_LSP_AGL",1.15,2.0971,3.3323,0.2526,4.6208,1.1372,1.1331,1.2184,2.0859,1.9198,0.2417,1.4146,1.1931,29.8135,1.4289,1.0155,0.2253,0.8493,1.3922
"PI_432286_LSP_AGL",1.1648,2.0574,3.3656,0.2403,4.7017,1.1384,1.0311,1.241,2.1118,1.9169,0.2481,1.4264,1.2048,29.7926,1.4399,1.0207,0.2211,0.8399,1.3962
"PI_451763_LSP_AGL",1.1579,2.0518,3.3018,0.2457,4.6714,1.1364,0.9843,1.238,2.0992,1.9311,0.2462,1.4297,1.2194,29.7313,1.4253,1.0219,0.2238,0.8509,1.3903
"PI_458503_LSP_AGL",1.0682,1.8504,3.0409,0.2167,4.3073,1.051,1.0007,1.137,1.9483,1.7955,0.2304,1.3177,1.1749,27.9531,1.3132,0.9504,0.2036,0.7551,1.2663
"PI_468900_LSP_AGL",1.1393,2.0916,3.3059,0.2483,4.6412,1.142,1.0464,1.227,2.0921,1.922,0.2473,1.4231,1.2093,29.7445,1.4409,1.0184,0.2205,0.8398,1.3817
"PI_468901_AGL",1.2691,2.3498,3.6272,0.2575,5.1195,1.2387,1.1363,1.354,2.3049,2.0981,0.2606,1.5624,1.2945,32.5966,1.5789,1.1098,0.2399,0.9257,1.5411
"PI_468902_LSP_AGL",1.222,2.25,3.5719,0.2518,4.9542,1.2121,1.122,1.2809,2.2036,2.0021,0.2581,1.4863,1.2594,31.4543,1.4977,1.0755,0.2341,0.8802,1.4583
"PI_472136_LSP_AGL",1.0359,1.9587,3.0998,0.2337,4.3245,1.0531,1.0891,1.1479,1.9535,1.7937,0.219,1.3359,1.1255,28.2812,1.352,0.9435,0.2049,0.7769,1.2973
"PI_472205_LSP_AGL",1.0334,1.9325,3.1155,0.2383,4.3248,1.0288,1.0962,1.1484,1.9421,1.7767,0.2179,1.3225,1.1411,28.2914,1.3265,0.915,0.2035,0.7655,1.2754
"PI_472213_LSP_AGL",1.1502,1.9864,3.2561,0.2409,4.5523,1.1222,1.0662,1.2141,2.0682,1.8988,0.2413,1.3966,1.2111,29.7662,1.4147,1.0313,0.22,0.8417,1.3574
"PI_472327_LSP_AGL",1.0315,1.9388,3.0782,0.2306,4.3079,1.0499,1.1359,1.1426,1.9506,1.7853,0.2231,1.327,1.1334,28.2436,1.3422,0.9483,0.2027,0.7746,1.2873
"PI_472380_LSP_AGL",1.0407,1.8094,3.0101,0.224,4.1804,1.037,1.0342,1.1109,1.9032,1.7687,0.2277,1.2902,1.1186,27.3558,1.306,0.9404,0.2001,0.7496,1.255
"PI_472416_LSP_AGL",1.1063,2.0371,3.3144,0.2467,4.6089,1.117,1.0765,1.2215,2.0698,1.8915,0.2378,1.4099,1.1731,29.3284,1.4159,1.0281,0.2152,0.8217,1.368
"PI_472488_LSP_AGL",1.0709,1.9289,3.1988,0.2255,4.4413,1.0804,1.0099,1.1732,2.0008,1.8176,0.2343,1.3482,1.1388,28.2246,1.3758,0.9469,0.2057,0.7839,1.3216
"PI_472559_LSP_AGL",1.0652,1.8525,3.1119,0.2256,4.3176,1.0632,1.126,1.1431,1.9525,1.7806,0.2264,1.3089,1.1389,28.3265,1.3287,0.8984,0.208,0.7542,1.2814
"PI_472561_LSP_AGL",1.0421,1.8691,3.1065,0.2288,4.3138,1.0491,1.0548,1.1419,1.9384,1.7823,0.2306,1.3098,1.1271,28.0213,1.3218,0.9572,0.2039,0.7794,1.2802
"PI_472569_LSP_AGL",1.0288,1.9194,3.055,0.2267,4.3308,1.0359,1.096,1.1467,1.9494,1.8049,0.2182,1.3231,1.1435,28.5397,1.3367,0.9375,0.202,0.7612,1.2861
"PI_472588_LSP_AGL",1.2542,2.2979,3.617,0.2646,5.0229,1.2367,1.2805,1.3178,2.2524,2.066,0.2681,1.5155,1.285,33.0247,1.5598,1.1091,0.2433,0.9185,1.4992
"PI_472590_LSP_AGL",1.1907,2.0873,3.3672,0.2528,4.581,1.1546,1.1674,1.2034,2.0887,1.9157,0.2522,1.3909,1.22,29.945,1.4126,0.9824,0.2317,0.8538,1.3928
"PI_472615_LSP_AGL",1.1338,2.1299,3.3483,0.2447,4.727,1.136,1.1169,1.2394,2.1098,1.9145,0.2413,1.4298,1.2336,30.4538,1.4352,1.0317,0.2212,0.8497,1.3776
"PI_472629_LSP_AGL",1.1576,2.0453,3.3436,0.2527,4.5944,1.1289,1.0506,1.2213,2.0865,1.9128,0.2506,1.4023,1.2111,29.9957,1.4256,1.0038,0.2296,0.8493,1.3839
"PI_477921_LSP_AGL",1.2929,2.2979,3.636,0.2627,5.0165,1.248,1.1355,1.3123,2.2593,2.0256,0.2689,1.5178,1.3032,32.1894,1.5242,1.0954,0.2513,0.9225,1.4944
"PI_490288_LSP_AGL",1.1434,2.1287,3.3844,0.2316,4.7736,1.162,0.9882,1.2493,2.1315,1.937,0.2448,1.4391,1.2014,29.7923,1.4634,1.0084,0.2217,0.8296,1.4253
"PI_490289_LSP_AGL",1.1379,2.0254,3.2442,0.2168,4.7031,1.113,0.9224,1.2412,2.1,1.9098,0.2326,1.4208,1.2153,29.5707,1.4214,0.9904,0.2115,0.8002,1.3885
"PI_508090_AGL",1.1608,1.9349,3.2592,0.2485,4.5984,1.1501,0.867,1.2135,2.076,1.9366,0.2587,1.4019,1.1957,28.9438,1.414,1.0413,0.2227,0.8434,1.3686
"PI_518731_LSP_AGL",1.1473,1.9007,3.2673,0.2524,4.5182,1.0969,0.9133,1.1925,2.0284,1.878,0.2603,1.3662,1.1668,28.7147,1.3801,0.9791,0.22,0.8158,1.3442
"PI_518733_LSP_AGL",1.1954,2.2421,3.5143,0.2551,4.9465,1.1898,1.0611,1.3021,2.216,2.0208,0.2545,1.5071,1.2463,31.2538,1.5193,1.0698,0.2318,0.8929,1.4722
"PI_518734_LSP_AGL",1.2727,2.2463,3.5796,0.2646,4.9758,1.2197,1.111,1.3294,2.2574,2.0522,0.2482,1.5256,1.2529,32.0284,1.5432,1.0958,0.2478,0.9268,1.515
"PI_533688_LSP_AGL",1.2682,2.3622,3.7263,0.2681,5.1469,1.2495,1.1495,1.337,2.2855,2.0511,0.2625,1.5327,1.3197,32.9843,1.5602,1.0877,0.2462,0.9356,1.5035
"PI_533693_LSP_AGL",1.1241,2.1268,3.3324,0.231,4.7475,1.1447,1.0345,1.2422,2.1113,1.9202,0.2399,1.43,1.1956,29.8955,1.4445,0.9914,0.22,0.8304,1.4088
"PI_612875_AGL",1.1271,2.0354,3.3899,0.2498,4.6491,1.1362,1.1338,1.2175,2.0801,1.8961,0.2417,1.3957,1.1805,29.9314,1.4213,0.9965,0.2249,0.8375,1.3736
"PI_643451_AGL",1.1421,2.1388,3.4489,0.2308,4.8116,1.143,1.174,1.2567,2.1452,1.9181,0.2335,1.4356,1.2278,30.7039,1.4431,0.9585,0.2245,0.8183,1.4122
"PI_643452_AGL",1.1668,2.1438,3.4184,0.2318,4.7482,1.1498,1.2222,1.2476,2.1312,1.8995,0.2289,1.4284,1.2359,30.8558,1.435,0.959,0.2275,0.8148,1.4036
"Shasta_AGL",1.296,2.233,3.6013,0.2834,4.7936,1.1833,1.1819,1.2942,2.1963,1.9457,0.2532,1.4849,1.2907,32.1532,1.5003,1.0589,0.2499,0.9027,1.4387
"W6_27754_LSP_AGL",1.1172,1.9251,3.2517,0.2498,4.4628,1.1047,0.9502,1.1891,2.0156,1.8639,0.2454,1.3634,1.1498,28.6206,1.3903,0.9941,0.2184,0.8296,1.3386
"W6_27760_LSP_AGL",1.1644,1.9388,3.2564,0.2472,4.5392,1.1495,0.9618,1.2041,2.0625,1.8919,0.2494,1.3868,1.1916,28.9143,1.392,1.0088,0.2238,0.815,1.3643
"W6_27763_LSP_AGL",1.1461,2.1577,3.4824,0.2584,4.8408,1.151,0.9463,1.2831,2.1601,1.978,0.2497,1.4699,1.212,30.2933,1.4931,1.061,0.222,0.8594,1.4356
"W6_27766_LSP_AGL",1.1039,2.0832,3.2711,0.2346,4.6311,1.1101,0.9967,1.2098,2.0744,1.9077,0.2425,1.4126,1.1982,29.214,1.4032,1.0433,0.2091,0.8316,1.3706
"W6_27767_LSP_AGL",1.1128,1.9663,3.2729,0.2316,4.5642,1.1042,1.0771,1.2056,2.0479,1.8701,0.24,1.3761,1.1755,29.081,1.3897,0.9845,0.214,0.8167,1.3499
