"Name","Alanine_Ro16","Alanine_Ro17","Alanine_Su16","Alanine_Su17","Arginine_Ro16","Arginine_Ro17","Arginine_Su16","Arginine_Su17","Aspartic.acid_Ro16","Aspartic.acid_Ro17","Aspartic.acid_Su16","Aspartic.acid_Su17","Cysteine_Ro16","Cysteine_Ro17","Cysteine_Su16","Cysteine_Su17","Glutamic.acid_Ro16","Glutamic.acid_Ro17","Glutamic.acid_Su16","Glutamic.acid_Su17","Glycine_Ro16","Glycine_Ro17","Glycine_Su16","Glycine_Su17","Histidine_Ro16","Histidine_Ro17","Histidine_Su16","Histidine_Su17","Isoleucine_Ro16","Isoleucine_Ro17","Isoleucine_Su16","Isoleucine_Su17","Leucine_Ro16","Leucine_Ro17","Leucine_Su16","Leucine_Su17","Lysine_Ro16","Lysine_Ro17","Lysine_Su16","Lysine_Su17","Methionine_Ro16","Methionine_Ro17","Methionine_Su16","Methionine_Su17","Phenylalanine_Ro16","Phenylalanine_Ro17","Phenylalanine_Su16","Phenylalanine_Su17","Proline_Ro16","Proline_Ro17","Proline_Su16","Proline_Su17","Protein_Ro16","Protein_Ro17","Protein_Su16","Protein_Su17","Serine_Ro16","Serine_Ro17","Serine_Su16","Serine_Su17","Threonine_Ro16","Threonine_Ro17","Threonine_Su16","Threonine_Su17","Tryptophan_Ro16","Tryptophan_Ro17","Tryptophan_Su16","Tryptophan_Su17","Tyrosine_Ro16","Tyrosine_Ro17","Tyrosine_Su16","Tyrosine_Su17","Valine_Ro16","Valine_Ro17","Valine_Su16","Valine_Su17"
"X3156.11_AGL",1.1705,1.1195,1.1477,1.1004,1.9601,2.0082,1.9968,1.9634,3.3108,3.0345,3.3271,2.9675,0.2446,0.262,0.2561,0.2591,4.6282,4.2342,4.6096,4.153,1.1539,1.0749,1.131,1.0615,0.8896,0.7939,0.9558,0.8476,1.2125,1.1466,1.2136,1.1307,2.1126,1.9362,2.068,1.9172,1.9314,1.7386,1.8994,1.703,0.2777,0.2582,0.2596,0.2507,1.4088,1.3403,1.3875,1.3214,1.2104,1.1492,1.1836,1.1506,29.1435,27.2647,29.4261,27.2409,1.3997,1.308,1.3936,1.2802,1.0439,1.1027,1.0264,1.0729,0.2218,0.2177,0.2209,0.2175,0.826,0.8416,0.8341,0.81,1.3862,1.3184,1.3671,1.3024
"CDC_Asterix_AGL",1.2152,1.0787,1.1124,1.0835,2.0455,1.957,1.9288,2.0035,3.3906,3.0345,3.2584,3.0645,0.2526,0.2508,0.2524,0.2587,4.684,4.2718,4.5297,4.3091,1.1561,1.0629,1.1038,1.0763,0.9098,0.839,0.8404,0.88,1.241,1.1749,1.204,1.195,2.1255,1.9488,2.0392,1.9782,1.9464,1.7825,1.8933,1.7745,0.2793,0.2509,0.2621,0.243,1.4315,1.3547,1.381,1.3814,1.2373,1.1366,1.1562,1.1453,29.8997,27.4114,28.6052,27.7149,1.4317,1.3288,1.396,1.361,1.051,1.0715,1.0147,1.0487,0.2231,0.2159,0.2119,0.2168,0.8318,0.8062,0.8157,0.8026,1.4002,1.3409,1.3468,1.3631
"CDC_Cherie_AGL",1.1702,1.1187,1.1381,1.1027,1.9912,2.0788,1.9794,2.0444,3.3409,3.178,3.2271,3.1425,0.2533,0.2753,0.2499,0.2728,4.6136,4.3808,4.4992,4.3177,1.1328,1.1064,1.1042,1.0837,0.8608,0.7883,1.0364,0.7181,1.216,1.1836,1.1873,1.1698,2.0995,1.9956,2.0288,1.9846,1.9111,1.7738,1.8467,1.7722,0.2688,0.2519,0.2478,0.248,1.4053,1.3807,1.3622,1.3685,1.2195,1.1549,1.1737,1.1483,29.363,27.9871,29.4213,27.7439,1.4022,1.3406,1.3708,1.3382,1.0125,1.1683,0.9995,1.1169,0.2198,0.2262,0.2221,0.2228,0.814,0.8265,0.8053,0.8073,1.3776,1.3542,1.3387,1.3473
"CDC_Glamis_AGL",1.1706,1.1414,1.2356,1.062,1.9764,2.1019,2.1651,1.9014,3.2685,3.1191,3.4337,2.8365,0.2644,0.2791,0.2618,0.2639,4.5781,4.4234,4.8235,4.059,1.158,1.1288,1.1787,1.0546,0.8338,0.761,1.0446,0.7474,1.2276,1.228,1.2901,1.1438,2.0872,2.0258,2.1846,1.8818,1.9216,1.823,1.9854,1.7092,0.2744,0.2518,0.252,0.2354,1.4201,1.4262,1.4782,1.3277,1.1898,1.171,1.2506,1.1237,28.8665,27.7114,31.0304,26.1607,1.4249,1.4054,1.5009,1.3002,1.0458,1.121,1.0301,1.0265,0.2196,0.2259,0.2345,0.2126,0.852,0.866,0.8846,0.8054,1.3844,1.4027,1.4595,1.302
"CDC_Gold_AGL",1.2621,NA,1.198,NA,2.0378,NA,1.8806,NA,3.3859,NA,3.2485,NA,0.2751,NA,0.2676,NA,4.5995,NA,4.4055,NA,1.1155,NA,1.115,NA,0.9324,NA,0.9548,NA,1.2719,NA,1.1974,NA,2.1358,NA,2.0194,NA,1.9249,NA,1.8334,NA,0.2569,NA,0.2546,NA,1.4554,NA,1.365,NA,1.2376,NA,1.1842,NA,30.3265,NA,28.7928,NA,1.4493,NA,1.3655,NA,0.9945,NA,0.9685,NA,0.2276,NA,0.2259,NA,0.8512,NA,0.8298,NA,1.4087,NA,1.3264,NA
"CDC_Greenstar_AGL",1.1909,1.1122,1.0929,1.1082,2.0292,1.9714,1.8555,1.9688,3.3476,2.9626,3.1328,3.0253,0.2591,0.2724,0.2577,0.2641,4.7378,4.1906,4.3692,4.2699,1.1908,1.0962,1.103,1.0964,0.8193,0.7142,0.8511,0.716,1.2542,1.1743,1.1682,1.1817,2.1552,1.9425,1.9782,1.9655,1.967,1.7611,1.8125,1.7824,0.2816,0.2491,0.2526,0.2544,1.454,1.365,1.3318,1.3687,1.2252,1.1403,1.1494,1.1638,29.4712,26.6763,27.9528,27.1755,1.4481,1.3403,1.3366,1.3412,1.0792,1.1314,1.0142,1.0551,0.2257,0.2234,0.2158,0.2201,0.8664,0.8319,0.8086,0.8204,1.4147,1.3414,1.2937,1.3501
"CDC_Imax_AGL",1.2107,1.1682,1.2082,1.2181,2.0915,2.2088,2.1787,2.2823,3.6128,3.3207,3.6375,3.4397,0.2551,0.294,0.2549,0.2889,4.91,4.6252,4.9833,4.7645,1.2849,1.1385,1.2744,1.1724,0.9407,0.6364,0.9959,0.7242,1.2733,1.2441,1.293,1.2693,2.1974,2.0957,2.2327,2.1542,1.9874,1.846,2.002,1.9272,0.2463,0.2619,0.2382,0.2694,1.4497,1.4618,1.4771,1.4885,1.2119,1.2227,1.2344,1.2432,30.4095,28.5178,31.0886,29.7887,1.4887,1.4183,1.5096,1.4612,1.1504,1.1629,1.1466,1.1926,0.2519,0.2309,0.2527,0.2349,0.8829,0.8652,0.887,0.8912,1.4508,1.4176,1.4686,1.462
"CDC_Impower_AGL",1.1893,1.1551,1.1097,1.2109,2.0602,2.2446,2.0094,2.2149,3.4578,3.3339,3.35,3.2492,0.2478,0.2938,0.2353,0.2788,4.6627,4.597,4.5948,4.5321,1.2249,1.1728,1.2051,1.1693,1.0372,0.8507,1.1538,0.9137,1.2258,1.2554,1.1971,1.2596,2.1241,2.0949,2.092,2.0867,1.875,1.8558,1.8485,1.8523,0.2381,0.2716,0.219,0.2616,1.4036,1.4518,1.3729,1.4524,1.2275,1.2006,1.1932,1.2213,29.943,29.1357,29.8159,28.9963,1.4222,1.452,1.415,1.4425,1.104,1.1841,1.0602,1.1114,0.2443,0.2358,0.2397,0.2319,0.8467,0.9154,0.8324,0.8938,1.3717,1.4356,1.3433,1.4448
"CDC_KR.1_AGL",1.2363,1.0637,1.1295,1.0937,2.0301,1.9338,1.9543,2.0431,3.3729,2.8552,3.1915,2.9893,0.2572,0.265,0.2479,0.2757,4.6358,4.0272,4.4427,4.1707,1.1747,1.0369,1.1055,1.0857,0.9424,0.6726,0.9835,0.7952,1.2249,1.1053,1.1719,1.1409,2.1204,1.8717,2.015,1.9423,1.9294,1.6606,1.8252,1.6906,0.2791,0.2274,0.2421,0.2401,1.4211,1.3066,1.3531,1.3531,1.2415,1.1241,1.1724,1.1662,29.7385,25.9181,28.6007,27.1202,1.4185,1.2615,1.3468,1.308,1.048,1.0729,0.9998,1.0827,0.2269,0.2134,0.2164,0.2205,0.8308,0.7755,0.793,0.8095,1.3872,1.2684,1.3168,1.3132
"CDC_LeMay_AGL",1.1693,1.1483,1.1453,1.1152,2.0832,2.1185,2.1404,2.1249,3.3339,3.1639,3.3129,3.0278,0.2416,0.2561,0.242,0.2631,4.6896,4.5093,4.7058,4.362,1.1497,1.1068,1.1289,1.0902,0.884,0.7425,0.9974,0.8145,1.2293,1.2272,1.2373,1.2096,2.1287,2.0493,2.1031,2.0111,1.9428,1.852,1.9083,1.7755,0.2795,0.2538,0.2515,0.2378,1.4356,1.4257,1.4299,1.4087,1.2152,1.1766,1.2108,1.1687,29.8004,28.3716,29.9874,28.2269,1.4404,1.3935,1.4308,1.3796,1.0298,1.1078,0.9997,1.0981,0.2223,0.2222,0.2176,0.2174,0.841,0.8362,0.8175,0.8316,1.4143,1.4172,1.3972,1.3898
"CDC_Maxim_AGL",1.2316,1.1042,0.9884,1.0974,2.0634,2.0695,1.6885,2.0702,3.4977,3.1324,3.0516,3.1006,0.2582,0.2607,0.2052,0.2708,4.6384,4.3489,4.2433,4.262,1.2145,1.0775,1.0929,1.088,0.9789,0.7345,0.8648,0.7039,1.2408,1.1652,1.095,1.1483,2.1197,1.9767,1.9143,1.9616,1.8668,1.7632,1.7437,1.7142,0.2278,0.245,0.2196,0.2508,1.4093,1.3712,1.2539,1.3603,1.2503,1.1579,1.0905,1.1663,30.0816,27.5888,26.6515,27.3962,1.4297,1.326,1.2646,1.311,1.0276,1.1381,1.0223,1.1424,0.2449,0.2201,0.211,0.2226,0.8109,0.8138,0.7448,0.8158,1.3764,1.3333,1.2328,1.3197
"CDC_QG.1_AGL",1.2094,1.1606,1.2009,1.1768,2.1693,2.252,2.1655,2.2381,3.4954,3.2933,3.4812,3.2564,0.2583,0.273,0.2657,0.2697,4.9203,4.6386,4.8588,4.6123,1.2172,1.1493,1.1912,1.1525,1.0015,0.9069,1.0133,0.903,1.2926,1.2638,1.2906,1.2593,2.2311,2.1014,2.185,2.0991,2.032,1.8911,1.9994,1.8871,0.2833,0.2594,0.2695,0.2617,1.4984,1.4653,1.4737,1.4668,1.2517,1.1874,1.2225,1.1994,31.0244,29.407,30.9378,29.239,1.507,1.4469,1.4985,1.4423,1.0942,1.1868,1.0924,1.1783,0.2315,0.2298,0.2306,0.2285,0.8894,0.8995,0.8953,0.8984,1.473,1.4455,1.4527,1.4461
"CDC_Red_Rider_AGL",1.2577,1.2747,1.2373,1.173,2.1998,2.3706,2.1964,2.1669,3.6379,3.5071,3.6253,3.3101,0.2683,0.2917,0.2819,0.2834,4.9663,4.8232,4.9095,4.5406,1.2274,1.1907,1.1832,1.1216,0.9474,0.77,0.8917,0.695,1.284,1.2881,1.2884,1.2089,2.2278,2.1753,2.1926,2.0544,2.0306,1.9515,2.0047,1.8384,0.282,0.2738,0.2733,0.2657,1.4972,1.5171,1.4799,1.4248,1.2748,1.2522,1.2358,1.1919,30.9448,29.8111,30.7814,28.2467,1.4976,1.483,1.4888,1.3731,1.1084,1.225,1.098,1.1617,0.2403,0.2396,0.2334,0.2271,0.8852,0.9247,0.8844,0.8633,1.4672,1.4846,1.4529,1.3894
"CDC_Redcoat_AGL",1.3458,1.1634,1.1882,1.0992,2.0188,2.2371,2.1445,1.9887,3.481,3.337,3.432,2.9641,0.2882,0.279,0.2587,0.2588,4.6559,4.618,4.7911,4.1892,1.2033,1.1318,1.1685,1.0438,0.7574,0.8143,1.0839,0.7792,1.3012,1.2228,1.2548,1.1322,2.1659,2.0893,2.156,1.9201,1.9951,1.8536,1.9553,1.7376,0.2549,0.2563,0.2521,0.2348,1.4835,1.4423,1.448,1.3376,1.2402,1.2026,1.2273,1.131,29.279,28.8856,30.6899,26.8852,1.4929,1.4041,1.4551,1.2972,1.0376,1.1653,1.0212,1.0493,0.2386,0.2279,0.2268,0.2134,0.8347,0.8669,0.8528,0.8022,1.4617,1.402,1.4153,1.3065
"CDC_Redwing_AGL",1.2738,1.1453,1.1893,1.1773,2.1567,2.2552,2.1851,2.3194,3.5467,3.3569,3.5444,3.4374,0.2649,0.2751,0.2664,0.2738,4.9262,4.7244,4.9458,4.8221,1.1826,1.1417,1.1828,1.1575,0.8332,0.8446,0.9999,0.8552,1.3082,1.285,1.303,1.3076,2.2228,2.119,2.2007,2.1715,2.042,1.9244,1.9966,1.9502,0.2827,0.2481,0.2616,0.2586,1.5062,1.4882,1.486,1.5203,1.2633,1.1782,1.2183,1.2128,30.5975,29.334,30.9672,29.8193,1.5166,1.4836,1.521,1.4958,1.0717,1.1633,1.0605,1.19,0.222,0.2258,0.2278,0.2283,0.8697,0.8806,0.8682,0.8986,1.4625,1.454,1.4476,1.4825
"CDC_Robin_AGL",1.2387,1.1183,1.1452,1.1644,2.2079,2.171,1.9796,2.2058,3.6129,3.2488,3.2457,3.3136,0.2691,0.2822,0.2557,0.2689,4.9171,4.468,4.5604,4.5741,1.2148,1.1016,1.1315,1.1029,0.9508,0.7506,0.9691,0.7983,1.2782,1.1938,1.1956,1.227,2.2267,2.0326,2.0577,2.0783,2.024,1.8217,1.8934,1.8755,0.2899,0.2521,0.2603,0.2469,1.4991,1.4156,1.3927,1.4463,1.2506,1.1571,1.1683,1.1807,30.8844,28.1634,28.9531,28.7601,1.5046,1.3837,1.4061,1.4087,1.1292,1.1757,0.997,1.1058,0.2319,0.2237,0.219,0.2223,0.8847,0.8587,0.8331,0.8389,1.4632,1.3746,1.3573,1.4171
"CDC_Rosebud_AGL",1.2351,1.1604,1.1681,1.2034,2.1369,2.2544,2.1693,2.2579,3.5627,3.4091,3.535,3.4173,0.2712,0.2863,0.2746,0.2756,4.8415,4.7414,4.8504,4.7186,1.1976,1.1671,1.1716,1.1657,0.9023,0.8444,1.0244,0.8842,1.2771,1.2752,1.2908,1.2727,2.1983,2.1384,2.1762,2.1359,2.0319,1.9339,1.9896,1.9429,0.291,0.2712,0.2641,0.2723,1.4859,1.4952,1.4816,1.4906,1.2338,1.2014,1.222,1.2158,30.6309,29.3838,30.8643,29.6513,1.4989,1.4705,1.5025,1.4534,1.1326,1.1996,1.0655,1.211,0.2314,0.232,0.2295,0.232,0.8882,0.9027,0.8908,0.9009,1.452,1.4604,1.452,1.4571
"CDC_Rosetown_AGL",1.2082,1.1614,1.1442,1.1353,1.9562,2.2249,1.989,2.0778,3.3091,3.2526,3.2418,3.1478,0.248,0.2757,0.2492,0.2652,4.6036,4.5513,4.5437,4.4024,1.1683,1.1221,1.1133,1.0853,0.8965,0.7814,0.9485,0.7148,1.2154,1.2267,1.2016,1.1978,2.1044,2.0743,2.0623,2.0197,1.9337,1.8484,1.8939,1.8327,0.281,0.2488,0.2473,0.2415,1.412,1.45,1.4005,1.4092,1.2007,1.1852,1.1842,1.1504,29.2956,28.865,29.0426,27.8193,1.4184,1.412,1.4024,1.3821,1.0325,1.1713,1.0073,1.0964,0.2253,0.2265,0.2159,0.2181,0.8305,0.8663,0.8125,0.8244,1.3903,1.4157,1.366,1.383
"CDC_Rosie_AGL",1.1804,1.1763,1.2384,1.1229,2.0258,2.2812,2.2327,2.1736,3.3918,3.382,3.6038,3.2303,0.2636,0.2904,0.2755,0.2843,4.6979,4.6851,4.9961,4.4933,1.1549,1.1484,1.2078,1.1156,0.7705,0.8015,0.9454,0.7497,1.2451,1.2638,1.3159,1.2248,2.152,2.1271,2.239,2.0713,1.963,1.9036,2.041,1.8162,0.274,0.2567,0.2686,0.2446,1.4543,1.4891,1.5131,1.448,1.2097,1.1881,1.238,1.1822,29.2779,29.5432,31.3032,28.6122,1.4513,1.4605,1.5314,1.4101,1.0573,1.2115,1.1097,1.1533,0.2213,0.2342,0.2325,0.2266,0.8334,0.8916,0.8897,0.8397,1.4213,1.4622,1.4894,1.4059
"CDC_Rouleau_AGL",1.1978,1.1541,1.094,1.1107,1.9708,2.111,1.7693,1.9363,3.2971,3.1855,3.0428,2.9225,0.2365,0.2549,0.2298,0.2432,4.6338,4.4586,4.2938,4.1828,1.1492,1.1163,1.0688,1.0594,0.9711,0.8049,0.8584,0.8128,1.2238,1.1858,1.1248,1.1255,2.124,2.0259,1.931,1.919,1.9265,1.7901,1.7754,1.7337,0.2706,0.2603,0.2478,0.2387,1.4172,1.3892,1.2878,1.3223,1.2226,1.1895,1.147,1.1414,29.6445,28.084,27.5091,27.0538,1.4098,1.3411,1.2945,1.2888,1.0582,1.1257,0.959,1.0781,0.2228,0.2252,0.211,0.2146,0.824,0.8474,0.7668,0.7954,1.3918,1.3662,1.2645,1.2951
"CDC_Royale_AGL",1.2995,1.1088,1.141,1.0998,2.0237,2.0617,1.9603,2.0895,3.3913,3.1061,3.22,2.9939,0.2671,0.26,0.2454,0.268,4.6475,4.3555,4.5113,4.2942,1.1869,1.1012,1.1291,1.1029,0.9121,0.8466,0.9887,0.8707,1.2683,1.1909,1.1946,1.1895,2.151,1.9889,2.0405,1.986,1.9688,1.7937,1.8759,1.7598,0.2728,0.2463,0.2513,0.2357,1.456,1.3847,1.3694,1.3892,1.2611,1.1393,1.1749,1.1618,29.7455,27.6684,29.0624,28.0911,1.4396,1.347,1.3885,1.3644,1.0273,1.1317,0.9845,1.0846,0.2271,0.2186,0.2191,0.2207,0.8235,0.8211,0.8152,0.8309,1.4269,1.3626,1.3492,1.3655
"CDC_Ruby_AGL",1.2963,1.2188,1.1892,1.1001,2.26,2.2945,2.103,2.0129,3.7395,3.5419,3.4368,3.0958,0.2787,0.2947,0.2646,0.2749,5.069,4.8609,4.8155,4.3266,1.2532,1.1908,1.1692,1.0772,0.9293,0.6967,0.9401,0.6526,1.3261,1.2965,1.2631,1.1739,2.2875,2.1774,2.1553,1.9776,2.0582,1.9635,1.9619,1.767,0.3012,0.2715,0.2637,0.2471,1.533,1.5125,1.4543,1.3776,1.2896,1.2021,1.2092,1.1244,31.6437,29.7735,30.419,27.2377,1.539,1.4951,1.4704,1.3453,1.1469,1.2698,1.0518,1.1422,0.2416,0.2394,0.2282,0.2215,0.9013,0.9036,0.8505,0.8136,1.5083,1.4889,1.4247,1.3471
"CDC_SB.1_AGL",1.0602,1.0489,1.12,1.0134,1.7227,1.9253,1.9905,1.8394,3.0483,2.9955,3.2981,2.8336,0.2442,0.2582,0.2463,0.2534,4.1636,4.1145,4.4847,3.9087,1.029,1.0132,1.0973,0.9781,0.762,0.7799,1.1276,0.815,1.1095,1.1101,1.1837,1.0686,1.902,1.8771,2.0224,1.7989,1.7481,1.693,1.8452,1.6307,0.2619,0.2444,0.2479,0.2307,1.2795,1.3034,1.358,1.2558,1.1261,1.1129,1.183,1.0747,26.4532,26.1757,29.3963,25.5686,1.2846,1.2677,1.3844,1.2318,0.939,1.0561,0.9616,1.0084,0.1973,0.2051,0.2184,0.2002,0.7593,0.7938,0.8126,0.7632,1.2367,1.2563,1.3383,1.2106
"CDC_Sedley_AGL",1.3131,1.103,1.1033,1.1327,2.0765,2.0772,1.9877,2.1526,3.4624,3.097,3.1811,3.1521,0.2855,0.2648,0.2495,0.2676,4.6809,4.3483,4.4644,4.4242,1.1916,1.0876,1.1003,1.1164,0.8579,0.8479,1.0148,0.9382,1.3051,1.1932,1.1823,1.2025,2.1672,1.9836,2.0139,2.0184,1.957,1.7854,1.8357,1.8022,0.2647,0.2466,0.2475,0.2519,1.4845,1.3873,1.3625,1.4064,1.2554,1.1609,1.1833,1.1935,29.5034,27.5209,28.9572,28.3671,1.4739,1.3586,1.3725,1.3757,1.025,1.0799,0.9844,1.0794,0.23,0.2157,0.2177,0.2252,0.8377,0.848,0.8244,0.8646,1.4526,1.3538,1.3305,1.372
"CDC_Vantage_AGL",1.181,1.1549,1.1914,1.1554,1.9643,2.033,1.9342,2.0347,3.3483,3.1348,3.2952,3.1195,0.2664,0.2745,0.2704,0.2676,4.5951,4.3483,4.535,4.3327,1.1652,1.1209,1.1576,1.1067,0.8533,0.746,0.9178,0.7764,1.2215,1.1868,1.2052,1.1754,2.0986,1.9881,2.0569,1.9749,1.9316,1.8259,1.9051,1.8125,0.2823,0.2674,0.2715,0.271,1.4171,1.3861,1.3822,1.3768,1.2034,1.1649,1.1964,1.1699,28.9538,27.5461,29.1758,27.7262,1.4165,1.3618,1.4047,1.3296,1.0959,1.1644,1.0635,1.1906,0.2219,0.224,0.2261,0.2215,0.8485,0.8682,0.8453,0.8706,1.3801,1.3559,1.3478,1.3389
"CN_105604_AGL",1.1026,1.0698,1.0889,1.0503,1.9404,2.0168,1.9259,1.8462,3.2178,3.0404,3.1328,2.8795,0.2368,0.2563,0.2346,0.2394,4.4353,4.2241,4.4394,4.0164,1.0845,1.0512,1.0831,0.9959,0.943,0.7346,1.0683,0.8576,1.157,1.155,1.1658,1.0939,2.0063,1.9559,1.999,1.8416,1.8371,1.7182,1.8279,1.6829,0.2665,0.2423,0.2519,0.237,1.3515,1.3557,1.3497,1.2811,1.1601,1.1409,1.1525,1.0878,28.46,27.1732,28.9226,26.1249,1.3626,1.3341,1.3609,1.2487,0.9823,1.0497,0.9611,0.9847,0.2088,0.21,0.2104,0.2026,0.7866,0.8024,0.7909,0.7531,1.3168,1.3196,1.3165,1.2558
"CN_105605_AGL",1.2045,1.0901,1.1824,1.1414,2.0599,1.9518,2.0105,2.0422,3.5087,3.0833,3.4172,3.1674,0.2701,0.2788,0.2657,0.2659,4.6651,4.1846,4.6417,4.3406,1.1372,1.0502,1.1373,1.0731,0.8677,0.6269,0.8825,0.7228,1.2185,1.1424,1.221,1.1665,2.1084,1.9325,2.0989,1.9817,1.9433,1.74,1.9342,1.8214,0.2885,0.2573,0.2788,0.2576,1.4147,1.3345,1.4014,1.3658,1.2064,1.1296,1.1884,1.1339,29.6225,26.8213,29.4383,27.7495,1.4312,1.3144,1.4305,1.3541,1.0675,1.1296,1.0453,1.1449,0.2279,0.2186,0.225,0.2197,0.837,0.7926,0.8292,0.8134,1.3912,1.312,1.3886,1.3499
"CN_105715_AGL",1.189,1.106,1.2448,1.1885,2.2137,2.1713,2.3673,2.2829,3.5353,3.1899,3.6489,3.3565,0.2578,0.2796,0.2641,0.2633,4.9468,4.5503,5.1869,4.7508,1.1716,1.0955,1.2267,1.1395,0.9558,0.7533,1.0894,0.8795,1.2994,1.2702,1.364,1.2943,2.2108,2.055,2.3126,2.1433,2.0058,1.8413,2.0757,1.9219,0.2782,0.2457,0.2664,0.258,1.4956,1.4483,1.5632,1.488,1.2436,1.1649,1.285,1.223,30.7444,28.3718,32.6912,29.7406,1.5093,1.4405,1.5796,1.4819,1.0751,1.0872,1.1131,1.1029,0.2245,0.222,0.2389,0.2285,0.8829,0.8664,0.9028,0.8791,1.4616,1.4275,1.5305,1.4726
"CN_105732_AGL",1.2393,1.2064,1.2115,1.2346,2.2384,2.3217,2.1813,2.4853,3.5806,3.4479,3.4955,3.5998,0.2483,0.2748,0.2566,0.2793,5.0077,4.7889,4.9164,5.0114,1.2192,1.1992,1.2058,1.2213,1.0249,0.9365,1.0188,0.9892,1.292,1.2885,1.2795,1.3365,2.2365,2.1609,2.1884,2.2353,2.0304,1.9399,1.9875,1.9938,0.2798,0.2725,0.2745,0.27,1.4964,1.4917,1.467,1.5494,1.3027,1.2465,1.2612,1.279,31.7825,30.474,31.2358,31.8531,1.4946,1.478,1.4846,1.5252,1.1176,1.1957,1.0728,1.259,0.2359,0.2378,0.2308,0.2446,0.877,0.8987,0.8729,0.9333,1.4631,1.4772,1.4384,1.526
"CN_105767_AGL",1.1311,1.1798,1.1441,1.156,1.8255,2.2206,2.0355,2.1964,3.1754,3.3323,3.3104,3.2732,0.2442,0.2746,0.2534,0.2776,4.3306,4.6391,4.6002,4.5246,1.0811,1.1489,1.1216,1.1386,0.8431,0.8174,0.9862,0.9286,1.1399,1.2464,1.2131,1.2126,1.9698,2.1034,2.0829,2.0542,1.836,1.8756,1.8952,1.8332,0.2587,0.2631,0.2594,0.255,1.3282,1.4622,1.4052,1.4203,1.1655,1.2091,1.2119,1.1956,27.6425,29.1323,29.5351,29.1459,1.3268,1.4189,1.4028,1.398,0.9754,1.1621,1.0154,1.172,0.2138,0.2293,0.2162,0.2293,0.7714,0.8734,0.8219,0.8665,1.2918,1.4265,1.363,1.3861
"CN_105777_AGL",1.2264,1.1042,1.2014,1.1741,2.3114,2.0426,2.1855,2.4295,3.6978,3.0551,3.5249,3.5182,0.2699,0.2558,0.2614,0.3034,4.8024,4.2972,4.8436,4.8162,1.156,1.0864,1.1633,1.1589,1.1278,0.824,1.1782,0.9584,1.236,1.1795,1.2435,1.2823,2.1479,1.9672,2.1535,2.1784,1.9503,1.793,1.9502,1.9165,0.2604,0.243,0.2692,0.2524,1.4522,1.3724,1.4456,1.5182,1.2583,1.1336,1.2217,1.2282,31.1316,27.4405,31.2324,30.9317,1.4742,1.3345,1.4672,1.5086,0.9915,1.1132,1.0191,1.1859,0.2382,0.2165,0.2311,0.243,0.8381,0.822,0.8556,0.9073,1.4203,1.3562,1.4082,1.4758
"CN_105789_AGL",1.1941,1.1543,1.2346,1.1864,2.1748,2.209,2.3117,2.2345,3.5855,3.315,3.7122,3.1803,0.2541,0.2631,0.2704,0.2645,4.8007,4.5708,5.0569,4.4573,1.1521,1.1173,1.2273,1.1168,1.0463,0.8428,1.0955,1.0007,1.234,1.2195,1.3103,1.2096,2.1318,2.0689,2.2551,2.0519,1.9449,1.8471,2.0175,1.7948,0.2785,0.2605,0.285,0.2494,1.4267,1.4217,1.5007,1.4184,1.225,1.1757,1.2539,1.2071,30.5845,29.061,32.1715,29.1305,1.4561,1.4072,1.5346,1.399,1.0335,1.1527,1.1081,1.0689,0.2339,0.2303,0.2416,0.2307,0.8458,0.857,0.8986,0.8518,1.4158,1.412,1.497,1.4042
"CN_105791_AGL",1.2173,1.1686,1.1486,1.184,2.3675,2.3987,2.2677,2.339,3.6456,3.4954,3.5387,3.3616,0.2723,0.2998,0.2716,0.2905,4.8087,4.7224,4.8377,4.5784,1.1481,1.1487,1.1358,1.125,1.2509,0.9216,1.16,0.9804,1.2498,1.2503,1.2597,1.2306,2.1592,2.138,2.1557,2.0803,1.9781,1.8823,1.9551,1.842,0.2548,0.2664,0.2529,0.254,1.4789,1.4854,1.4626,1.4572,1.2547,1.2269,1.2279,1.2046,31.576,30.1709,31.33,29.4919,1.5026,1.4574,1.4907,1.4345,0.9751,1.1781,0.9997,1.1002,0.2334,0.2361,0.2275,0.2329,0.8685,0.9253,0.881,0.9005,1.4434,1.4374,1.4333,1.4219
"CN_105862_AGL",1.2769,1.2379,1.1604,1.1847,2.1917,2.3781,2.0246,2.2979,3.4901,3.489,3.2898,3.2289,0.2443,0.2688,0.2493,0.2538,4.8901,4.9662,4.6665,4.6486,1.209,1.2039,1.1372,1.1298,1.087,0.9072,1.0041,1.0214,1.2864,1.3217,1.2307,1.258,2.2162,2.215,2.0909,2.094,2.0361,2.0005,1.919,1.869,0.2657,0.274,0.2538,0.2408,1.4966,1.542,1.4077,1.465,1.3013,1.2464,1.2139,1.2284,31.4567,30.7389,30.017,29.7175,1.5022,1.5195,1.4305,1.43,1.0667,1.2273,0.9966,1.1204,0.2356,0.2395,0.2227,0.226,0.8845,0.9292,0.8522,0.8884,1.4653,1.5151,1.384,1.4287
"CN_105863_AGL",1.2469,1.2048,1.1816,1.1688,2.2237,2.3423,2.1658,2.2638,3.5248,3.3373,3.3023,3.2135,0.2432,0.2656,0.2373,0.2456,4.9531,4.8296,4.8326,4.6906,1.196,1.1752,1.161,1.1308,1.0758,0.9271,1.019,0.9135,1.2827,1.2851,1.2576,1.243,2.2295,2.1746,2.1722,2.1004,2.0285,1.9709,1.9689,1.8898,0.2669,0.2617,0.2559,0.2533,1.4976,1.5184,1.4613,1.4641,1.2988,1.247,1.2811,1.2424,31.5277,30.274,31.3606,29.608,1.4993,1.4873,1.4685,1.4136,1.0691,1.2104,1.0568,1.129,0.2333,0.2345,0.2195,0.2234,0.8777,0.9093,0.8427,0.8688,1.4546,1.4812,1.4044,1.4178
"CN_105864_AGL",1.4114,1.1633,1.1607,1.1601,2.3608,2.2001,2.003,2.1809,3.7663,3.3103,3.3417,3.2801,0.2697,0.2677,0.2401,0.2591,5.1408,4.6277,4.6704,4.5816,1.28,1.1318,1.1408,1.1273,1.1195,0.8859,0.9985,0.913,1.364,1.2365,1.2138,1.2244,2.3177,2.0836,2.0905,2.0661,2.0955,1.8773,1.9007,1.8463,0.2836,0.2593,0.2631,0.2543,1.5653,1.445,1.3978,1.4368,1.3556,1.2019,1.2117,1.2066,32.9591,29.1752,29.5027,28.9858,1.5668,1.4135,1.4066,1.3878,1.1272,1.1351,1.0062,1.1185,0.2459,0.2256,0.2157,0.2195,0.9288,0.8664,0.8202,0.8463,1.538,1.4152,1.3567,1.3914
"CN_105865_AGL",1.1872,1.204,1.2844,1.1477,2.1802,2.3113,2.37,2.2475,3.4281,3.4015,3.6072,3.1693,0.2501,0.2738,0.2536,0.2535,4.8533,4.8542,5.1679,4.6151,1.1718,1.1877,1.2488,1.1092,1.0691,0.8404,1.2782,0.9399,1.2566,1.3001,1.3243,1.2354,2.1586,2.1821,2.2991,2.069,1.994,1.9593,2.0569,1.8542,0.2572,0.2672,0.2691,0.2419,1.4633,1.5187,1.5348,1.4485,1.2442,1.2341,1.3267,1.208,30.8509,29.741,33.6934,29.0588,1.4851,1.4998,1.55,1.4067,1.0347,1.1695,1.1004,1.0807,0.2287,0.2341,0.2447,0.2233,0.8833,0.9026,0.92,0.8606,1.4334,1.4923,1.4895,1.4069
"CN_105866_AGL",1.2471,1.1993,1.0928,1.2074,2.3336,2.228,1.929,2.3143,3.6269,3.2623,3.1109,3.1822,0.26,0.2638,0.2352,0.2465,5.1,4.609,4.4213,4.6486,1.2098,1.1257,1.0695,1.1143,1.0237,0.8611,0.9728,1.0631,1.3153,1.2402,1.1643,1.247,2.2808,2.0949,1.9853,2.1244,2.0472,1.8898,1.832,1.8795,0.274,0.2472,0.2298,0.2369,1.5342,1.4586,1.343,1.4696,1.2989,1.2061,1.1681,1.2621,31.9071,28.5125,28.3078,30.1661,1.5337,1.4242,1.3651,1.4369,1.0894,1.1414,0.9255,1.0616,0.231,0.2234,0.2088,0.2259,0.8894,0.8671,0.7854,0.8381,1.4907,1.4264,1.3127,1.4411
"CN_105895_AGL",1.209,1.1764,1.2222,1.2197,2.2025,2.4503,2.2746,2.3711,3.5973,3.4986,3.5951,3.4458,0.2497,0.2823,0.2596,0.2673,4.9202,4.8823,4.9821,4.8094,1.1787,1.1872,1.2,1.1689,0.9753,0.8973,1.0632,0.9108,1.2767,1.2931,1.2971,1.2879,2.1974,2.2108,2.2298,2.1802,1.9979,1.9029,1.9975,1.9262,0.2735,0.2633,0.2695,0.2595,1.4711,1.5166,1.4933,1.5017,1.2453,1.2531,1.2472,1.2436,30.9624,31.1895,31.7249,30.7,1.4994,1.5102,1.512,1.4849,1.0312,1.2129,1.0729,1.1256,0.2353,0.2445,0.2371,0.239,0.8607,0.9119,0.8689,0.8865,1.4622,1.4919,1.4778,1.4925
"CN_106265_AGL",1.2092,1.1274,1.1611,1.1055,1.9835,2.1537,2.0806,2.103,3.3578,3.2276,3.3764,3.1554,0.2379,0.2713,0.2561,0.267,4.6193,4.4709,4.6732,4.3541,1.1547,1.101,1.1567,1.0924,1.0033,0.8116,1.0723,0.8461,1.2042,1.1863,1.2158,1.1595,2.0971,2.0204,2.0934,1.9659,1.9254,1.811,1.8992,1.7614,0.2727,0.2546,0.2567,0.2502,1.3985,1.3977,1.4058,1.3651,1.2268,1.1685,1.2057,1.1572,29.5819,28.37,30.0742,28.0729,1.4066,1.3713,1.4194,1.3339,1.0318,1.1117,1.022,1.0786,0.2279,0.225,0.2231,0.2229,0.8237,0.8385,0.8303,0.8255,1.3752,1.3734,1.3673,1.3356
"CN_108369_AGL",1.1752,1.1143,1.2364,1.0728,2.0441,2.1586,2.2391,2.0069,3.3202,3.1804,3.4713,2.98,0.2411,0.2609,0.2498,0.2515,4.6428,4.4945,4.936,4.2322,1.1408,1.1151,1.1984,1.0654,0.977,0.9518,1.1764,0.8852,1.2215,1.2152,1.2878,1.1562,2.1108,2.0277,2.2203,1.9283,1.9305,1.827,1.9951,1.7455,0.2594,0.2492,0.2604,0.2441,1.4246,1.4103,1.4909,1.35,1.2423,1.1819,1.2847,1.1505,29.7945,28.9058,31.9281,27.4735,1.4139,1.3851,1.4912,1.3127,1.0558,1.1174,1.029,1.0643,0.2271,0.2268,0.2334,0.2156,0.8307,0.8532,0.8811,0.8189,1.3858,1.3825,1.4508,1.316
"CN_108370_AGL",1.2885,1.1944,1.2365,1.1792,2.2819,2.2011,2.2794,2.0296,3.7208,3.3215,3.6341,3.0441,0.2632,0.2659,0.275,0.2643,5.1514,4.6602,5.0783,4.2963,1.2688,1.1518,1.2445,1.1015,0.9892,0.8589,1.0492,0.8171,1.3513,1.2581,1.3356,1.2046,2.3198,2.1068,2.2687,1.9908,2.1341,1.9281,2.0744,1.8297,0.2902,0.2687,0.2772,0.2505,1.563,1.469,1.5296,1.3949,1.2885,1.1883,1.2546,1.166,32.0603,29.1786,32.1079,27.9326,1.5826,1.4433,1.5677,1.3761,1.1735,1.171,1.149,1.1097,0.2441,0.2288,0.2402,0.2205,0.9308,0.8794,0.9305,0.8203,1.5521,1.4485,1.5146,1.3813
"Crimson_AGL",1.2626,1.1275,1.1641,1.1337,2.0776,2.064,2.0537,2.0451,3.4468,3.1462,3.3816,2.9703,0.2408,0.2609,0.2562,0.2583,4.7612,4.4013,4.6798,4.2423,1.1955,1.1096,1.1702,1.0829,1.0447,0.7624,0.9945,0.9185,1.2523,1.1788,1.2269,1.1614,2.1655,2.0081,2.1106,1.9589,1.9692,1.8152,1.9167,1.7474,0.2712,0.2557,0.2635,0.2389,1.4481,1.3926,1.4128,1.3642,1.2639,1.1595,1.2194,1.1649,30.5373,27.959,30.1492,27.7939,1.4436,1.3416,1.4246,1.3289,1.044,1.179,1.0559,1.0725,0.231,0.2222,0.2297,0.2195,0.8428,0.8314,0.8556,0.8182,1.4256,1.3577,1.3946,1.3408
"DPL_62_AGL",1.1904,1.147,1.1567,1.054,2.1565,2.2378,2.1123,2.0072,3.521,3.3027,3.3638,2.9164,0.2502,0.2784,0.2544,0.2716,4.7591,4.567,4.6865,4.1174,1.1627,1.1313,1.1495,1.0888,1.0916,0.9345,1.1837,1.0123,1.2305,1.237,1.2366,1.1611,2.1372,2.0667,2.1141,1.9406,1.9417,1.8528,1.9191,1.6754,0.2685,0.2556,0.2502,0.2321,1.4377,1.4453,1.4276,1.3578,1.2385,1.195,1.2243,1.1531,30.317,29.1632,30.7493,27.7624,1.45,1.4205,1.4516,1.3376,1.0347,1.1672,1.0153,1.023,0.2284,0.2275,0.2246,0.221,0.8354,0.8634,0.8351,0.7961,1.3952,1.4086,1.393,1.3236
"Eston_AGL",1.179,1.0768,1.1416,1.1123,2.0576,2.0735,2.0642,2.2097,3.4179,3.1855,3.3962,3.2733,0.2535,0.2693,0.2585,0.2719,4.6337,4.3368,4.6365,4.4957,1.1453,1.0878,1.1491,1.1313,0.9804,0.8614,1.094,1.0248,1.2178,1.1777,1.2152,1.2066,2.0956,1.9608,2.0821,2.0247,1.9249,1.7834,1.8883,1.8225,0.2692,0.2581,0.262,0.2547,1.414,1.3669,1.3947,1.4105,1.2302,1.1521,1.2095,1.1736,29.7403,28.0165,30.3493,29.2123,1.4238,1.3421,1.4187,1.3984,1.0207,1.1284,1.0116,1.1524,0.2263,0.2183,0.2258,0.2275,0.8334,0.8313,0.841,0.8656,1.3766,1.3342,1.3706,1.376
"Gudo_AGL",1.2674,1.1772,1.1773,1.1441,2.3743,2.3663,2.2591,2.3206,3.7143,3.4566,3.4787,3.3181,0.275,0.2739,0.2606,0.2843,5.0787,4.8151,4.914,4.6587,1.2179,1.1637,1.184,1.1718,1.0727,0.8899,1.1285,0.9746,1.3349,1.2894,1.2949,1.2878,2.2811,2.1529,2.1966,2.1295,2.0676,1.917,1.9576,1.8342,0.2716,0.2723,0.2568,0.2516,1.5463,1.498,1.4848,1.4833,1.2972,1.2432,1.2482,1.2423,32.08,30.2024,31.3242,29.6191,1.5725,1.4735,1.5091,1.474,1.0652,1.1944,1.0395,1.0538,0.242,0.2346,0.2284,0.2318,0.9245,0.9263,0.9026,0.8947,1.518,1.4651,1.4447,1.4546
"IG_1046_AGL",1.3797,1.2216,1.2465,1.1707,2.2844,2.3135,2.1303,2.1087,3.7707,3.5283,3.5924,3.2879,0.2983,0.3006,0.2755,0.2842,4.8945,4.7712,4.7818,4.4216,1.2639,1.1999,1.194,1.1318,1.0932,0.8992,1.0343,0.8992,1.3227,1.297,1.2551,1.2001,2.2606,2.1642,2.1625,2.02,2.0609,1.9474,1.9611,1.8433,0.283,0.2798,0.2783,0.2734,1.5277,1.5042,1.4415,1.3992,1.3194,1.2384,1.2506,1.1732,32.274,30.3285,31.1253,28.7217,1.5528,1.4917,1.4666,1.3821,1.132,1.2205,1.0773,1.1774,0.2527,0.2405,0.2418,0.23,0.9184,0.9208,0.871,0.872,1.5092,1.4783,1.4191,1.3749
"IG_1706_AGL",1.4919,1.224,1.3336,1.2178,2.5636,2.3682,2.5254,2.3755,4.1117,3.6949,4.0592,3.5799,0.3153,0.3051,0.2873,0.3019,5.3549,4.9192,5.2897,4.8315,1.3409,1.1902,1.2629,1.1994,1.2282,0.8682,1.0778,0.9422,1.432,1.326,1.3581,1.3069,2.4428,2.232,2.3765,2.2031,2.2125,1.9656,2.1204,1.9172,0.3073,0.2774,0.2954,0.2713,1.6362,1.533,1.5768,1.5167,1.3921,1.2412,1.3295,1.2368,35.1373,31.0218,33.419,30.7693,1.6776,1.5184,1.5894,1.5065,1.1783,1.2512,1.1622,1.206,0.2707,0.2454,0.2589,0.2456,0.9822,0.8964,0.9391,0.9034,1.6459,1.5161,1.5704,1.5017
"IG_1959_AGL",1.1252,1.1021,1.0434,1.134,1.8575,2.0978,1.7679,2.122,3.2739,3.2606,3.016,3.2866,0.2576,0.2949,0.2508,0.2792,4.358,4.3568,4.1387,4.4175,1.0664,1.1023,1.0302,1.0937,0.8453,0.8439,0.9908,0.9292,1.1442,1.213,1.1006,1.1928,1.9681,2.0018,1.8815,2.0037,1.8504,1.7786,1.7641,1.8337,0.274,0.2588,0.248,0.2678,1.32,1.3949,1.2576,1.3839,1.1573,1.1601,1.1115,1.1516,27.8328,28.1609,27.5453,28.7103,1.3513,1.3935,1.2883,1.3756,0.9968,1.1166,0.9469,1.1742,0.2159,0.2226,0.2075,0.2267,0.7935,0.8327,0.7754,0.8583,1.291,1.373,1.2426,1.371
"IG_4258_AGL",1.0525,1.0814,0.9949,1.0788,1.8368,2.1271,1.7888,2.1582,3.0952,3.0804,2.9843,3.073,0.231,0.2504,0.2351,0.2538,4.2664,4.3814,4.1288,4.3389,1.0327,1.057,1.007,1.0738,0.9357,0.9668,1.039,1.1369,1.1288,1.1783,1.0924,1.1737,1.9312,1.9853,1.8638,1.9848,1.806,1.7894,1.7143,1.7432,0.2389,0.235,0.226,0.2302,1.3115,1.3887,1.2613,1.3795,1.1346,1.1382,1.0913,1.1645,27.5407,28.2457,27.2848,28.9576,1.3227,1.3499,1.2713,1.3529,0.9273,1.0768,0.9295,1.0666,0.2031,0.2131,0.1979,0.2185,0.7583,0.8211,0.738,0.817,1.2769,1.3547,1.2167,1.3406
"IG_4781_AGL",1.319,1.2153,1.1777,1.2302,2.42,2.3341,2.0941,2.3841,3.7727,3.4074,3.3577,3.5017,0.2672,0.2731,0.2551,0.2812,5.222,4.828,4.7495,4.9002,1.2532,1.1739,1.1517,1.2008,1.1373,0.8817,0.9616,0.9218,1.3634,1.3103,1.256,1.3194,2.3391,2.1708,2.1221,2.1893,2.1219,1.9347,1.9293,1.9588,0.2792,0.2654,0.2634,0.2729,1.5751,1.5161,1.4384,1.527,1.3481,1.2475,1.2238,1.2505,33.404,30.0763,29.9937,30.7731,1.5971,1.4907,1.4546,1.5144,1.1123,1.1519,1.0262,1.1778,0.2483,0.2313,0.2206,0.2396,0.9318,0.9064,0.8518,0.9332,1.5518,1.4903,1.3998,1.5054
"IG_858_AGL",1.3178,1.1795,1.1302,1.1742,2.2155,2.4367,2.0197,2.3201,3.5985,3.4757,3.3101,3.3821,0.2812,0.2805,0.2503,0.2688,4.7917,4.788,4.593,4.6763,1.1787,1.1481,1.1144,1.1254,0.9714,0.9545,1.016,0.9912,1.3053,1.2714,1.1978,1.2491,2.1859,2.1521,2.0536,2.1122,1.9855,1.8762,1.872,1.8629,0.2586,0.2546,0.2564,0.2515,1.4893,1.4958,1.3765,1.457,1.2816,1.2271,1.1724,1.2208,30.8212,30.1084,29.3334,30.0824,1.4998,1.4605,1.3959,1.4316,1.0254,1.1549,0.978,1.1045,0.2383,0.2358,0.2207,0.2298,0.8506,0.9024,0.8184,0.8649,1.4692,1.4655,1.3535,1.4408
"ILL_10657_AGL",1.2023,1.1372,1.2925,1.2174,2.0737,2.1781,2.3064,2.3324,3.4158,3.2744,3.7022,3.4364,0.2615,0.2988,0.2861,0.2784,4.6572,4.5263,5.1063,4.7305,1.1677,1.1324,1.2648,1.1706,0.9835,0.7116,0.9519,0.934,1.2193,1.2208,1.3276,1.2559,2.1019,2.0518,2.2718,2.1315,1.936,1.8143,2.0493,1.8972,0.2628,0.2621,0.2905,0.2648,1.4154,1.4278,1.5225,1.4684,1.2251,1.1842,1.2726,1.2331,29.9106,28.6019,31.8905,30.3571,1.4391,1.4046,1.5466,1.4419,1.0553,1.1773,1.1363,1.1949,0.2316,0.2336,0.2441,0.2387,0.8415,0.8654,0.9317,0.8852,1.3924,1.3931,1.5083,1.4507
"ILL_10748_AGL",1.1231,1.1007,1.067,1.1131,1.9574,2.1277,1.8753,2.1562,3.1777,3.0872,3.0103,3.0529,0.2344,0.2605,0.235,0.2554,4.4672,4.3679,4.3313,4.414,1.1019,1.1122,1.0589,1.1172,1.0319,0.9508,0.9446,1.052,1.1621,1.1879,1.1403,1.209,2.0181,1.9973,1.9514,2.0243,1.8658,1.7841,1.792,1.7949,0.2589,0.2516,0.2476,0.2399,1.3544,1.392,1.3182,1.4084,1.2087,1.1926,1.1643,1.2074,28.9602,28.1615,27.8747,28.8843,1.3586,1.3694,1.3202,1.3944,0.9864,1.1181,0.9391,1.0554,0.2153,0.2195,0.2001,0.2203,0.8137,0.8405,0.7765,0.8339,1.3137,1.3579,1.2658,1.3787
"ILL_11547_AGL",1.3555,1.1695,1.2809,1.2404,2.418,2.2761,2.4344,2.451,3.9717,3.4294,3.8489,3.5794,0.2841,0.2975,0.2837,0.2944,5.2769,4.6636,5.1876,4.8959,1.2796,1.1641,1.2561,1.2004,1.0778,0.824,1.1778,1.0231,1.3819,1.2821,1.3614,1.3179,2.3652,2.1479,2.3134,2.2094,2.1224,1.8436,2.0521,1.9192,0.2931,0.2576,0.2757,0.262,1.5816,1.4861,1.5535,1.5255,1.3188,1.224,1.2821,1.2545,33.12,29.7679,32.9503,31.2244,1.5993,1.4632,1.5809,1.5092,1.1436,1.1728,1.1015,1.1699,0.2586,0.2395,0.2472,0.2484,0.939,0.8771,0.9347,0.9295,1.583,1.4577,1.5438,1.5114
"ILL_11548_AGL",1.2341,1.1486,1.1768,1.1774,2.1955,2.1518,2.113,2.3484,3.6118,3.3509,3.5038,3.4785,0.2589,0.266,0.2638,0.2803,4.9152,4.6353,4.8225,4.8465,1.1975,1.1668,1.1897,1.2164,0.9614,0.8482,0.9852,0.9577,1.2859,1.2599,1.2609,1.317,2.2069,2.1021,2.1598,2.2076,2.0106,1.8826,1.9563,1.9186,0.2838,0.2696,0.2817,0.2674,1.48,1.4462,1.4439,1.5249,1.2572,1.1901,1.2144,1.2419,30.9492,29.4005,30.614,30.6805,1.4934,1.4297,1.4738,1.5156,1.0873,1.1796,1.0931,1.2082,0.2392,0.2325,0.2359,0.2431,0.8754,0.8652,0.8582,0.9031,1.4663,1.4388,1.4287,1.5091
"ILL_11553_AGL",1.1267,1.1064,1.1045,1.1571,2.0415,2.1486,1.9383,2.2803,3.2809,3.1774,3.1721,3.218,0.2367,0.2571,0.2326,0.2534,4.5397,4.4227,4.4417,4.4966,1.0948,1.0925,1.0938,1.1334,1.0851,0.9493,1.1036,1.2215,1.1871,1.1896,1.168,1.2109,2.0435,2.0046,2.0037,2.0591,1.8743,1.7919,1.8158,1.8145,0.2425,0.2439,0.2427,0.2394,1.377,1.3946,1.343,1.4292,1.2153,1.1709,1.1847,1.2197,29.7373,28.5484,29.1559,30.0292,1.3796,1.3532,1.3484,1.3947,0.9648,1.1478,0.9601,1.1407,0.2149,0.2171,0.21,0.2258,0.8036,0.8197,0.7738,0.8453,1.3462,1.3557,1.3027,1.3911
"ILL_11555_AGL",1.1873,1.1013,1.1704,1.1954,2.221,2.1911,2.1656,2.4903,3.538,3.1988,3.4053,3.453,0.2526,0.2697,0.2508,0.2736,4.8371,4.4093,4.7492,4.8121,1.1754,1.1145,1.1758,1.2278,1.1505,1.0058,1.1492,1.287,1.2553,1.2079,1.2483,1.3023,2.1676,2.0071,2.1353,2.1902,1.9579,1.7855,1.9118,1.8762,0.2657,0.2472,0.2575,0.2532,1.457,1.4036,1.4359,1.5124,1.2766,1.19,1.2464,1.2754,31.1657,28.7495,30.757,31.8038,1.4574,1.3798,1.4467,1.4969,1.053,1.1309,1.0361,1.1445,0.2288,0.2196,0.2224,0.2425,0.8613,0.851,0.8385,0.9152,1.4142,1.3601,1.394,1.4977
"ILL_11557_AGL",1.1841,1.1569,1.1921,1.1741,2.1078,2.2047,2.1246,2.3112,3.3878,3.2474,3.3685,3.2861,0.2422,0.274,0.2461,0.2719,4.7235,4.562,4.706,4.6704,1.1333,1.1158,1.1539,1.1651,1.0412,0.8757,1.1729,1.0497,1.23,1.2372,1.2285,1.266,2.1194,2.069,2.1213,2.1402,1.9439,1.8422,1.901,1.8572,0.2547,0.2477,0.2536,0.2467,1.4323,1.448,1.4239,1.4882,1.2406,1.2014,1.2466,1.248,30.0219,28.8365,30.8221,30.0547,1.4265,1.4135,1.4284,1.4515,1.0026,1.1195,1.0201,1.0974,0.2215,0.2239,0.2271,0.2332,0.8275,0.8427,0.8247,0.8592,1.3929,1.4071,1.3785,1.4519
"ILL_11558_AGL",1.128,1.1497,1.1424,1.1396,2.0727,2.2882,1.9984,2.2512,3.3072,3.3249,3.2307,3.1551,0.236,0.2599,0.2349,0.2629,4.5069,4.6413,4.5046,4.4629,1.0797,1.1255,1.1097,1.132,1.2405,1.0543,1.2124,1.1547,1.1725,1.233,1.1831,1.2239,2.0288,2.0774,2.0371,2.0551,1.8577,1.8618,1.8373,1.7718,0.2428,0.2446,0.2434,0.2322,1.3669,1.446,1.3625,1.4306,1.2172,1.1955,1.207,1.222,30.1287,29.9007,30.1233,29.7073,1.3798,1.4151,1.3793,1.4032,0.9214,1.168,0.9535,1.0665,0.2199,0.2287,0.2197,0.2262,0.794,0.8616,0.7876,0.8371,1.3336,1.4146,1.3244,1.3964
"ILL_1220_AGL",1.3135,1.215,1.1969,1.16,2.2303,2.2815,1.9504,2.1155,3.7442,3.4605,3.2748,3.1007,0.2825,0.2951,0.2588,0.271,5.0066,4.7178,4.479,4.3096,1.2487,1.1738,1.1238,1.1036,0.9903,0.8321,0.9797,1.0351,1.3156,1.266,1.1899,1.1824,2.2593,2.1392,2.0383,1.9924,2.0806,1.9203,1.8838,1.809,0.2955,0.2751,0.2661,0.2523,1.5093,1.4759,1.3648,1.3812,1.2683,1.2058,1.1873,1.1613,31.4543,29.8957,29.3851,28.9392,1.5495,1.4647,1.3921,1.3785,1.1196,1.2289,0.985,1.0994,0.2461,0.2389,0.2264,0.2277,0.9243,0.9082,0.8204,0.8612,1.5125,1.4618,1.3573,1.3837
"ILL_1553_AGL",1.2316,1.1961,1.2402,1.1829,2.1771,2.2525,2.1645,2.269,3.5396,3.4576,3.5751,3.3444,0.2693,0.2944,0.2767,0.2893,4.8032,4.7222,4.9625,4.6571,1.1757,1.1816,1.2102,1.1783,0.9854,0.8172,0.958,1.0155,1.2663,1.2884,1.3082,1.2881,2.1668,2.1326,2.2188,2.1254,1.9959,1.913,2.0207,1.8857,0.2707,0.2733,0.2834,0.2602,1.4692,1.4829,1.4899,1.4807,1.2412,1.2194,1.249,1.2106,30.6171,29.5387,31.0958,30.1526,1.4934,1.4777,1.5177,1.4816,1.1001,1.2076,1.0799,1.1376,0.2376,0.2368,0.2362,0.241,0.8953,0.9081,0.91,0.9138,1.4428,1.4561,1.4673,1.4687
"ILL_1762_AGL",1.0752,1.0363,1.0657,1.0346,1.622,1.8603,1.7518,1.8808,3.0594,2.9493,3.063,2.8559,0.2427,0.274,0.2484,0.2644,4.0788,3.9951,4.1864,3.9521,1.0117,1.018,1.0373,1.0239,0.6326,0.6891,0.8676,0.9245,1.0752,1.1002,1.105,1.0907,1.8499,1.855,1.9017,1.8513,1.7708,1.6687,1.7872,1.6601,0.2592,0.2396,0.2441,0.232,1.2347,1.2879,1.2685,1.2778,1.0944,1.0956,1.1157,1.0927,25.6416,26.2704,27.3076,26.9004,1.248,1.2618,1.2971,1.2706,0.9431,1.1131,0.9447,1.0538,0.2035,0.2126,0.2058,0.2163,0.7222,0.7549,0.7556,0.7643,1.2172,1.259,1.256,1.2638
"ILL_1983_AGL",1.0725,1.0503,1.0582,1.0628,1.9652,2.1406,1.945,2.1448,3.2242,3.0876,3.1246,2.9976,0.2358,0.255,0.2343,0.2527,4.4198,4.2998,4.3795,4.2475,1.0668,1.04,1.0559,1.0519,1.036,1.0275,1.1657,1.1477,1.1574,1.1611,1.1525,1.1559,1.9921,1.9415,1.9647,1.949,1.8384,1.7111,1.804,1.7159,0.2419,0.2255,0.2359,0.2254,1.3429,1.3576,1.3232,1.3557,1.1616,1.1348,1.1491,1.1533,28.664,27.935,29.2112,28.6594,1.3617,1.3258,1.3496,1.337,0.9466,1.0589,0.9478,1.0394,0.2102,0.2103,0.2118,0.218,0.7762,0.8036,0.7892,0.8158,1.3143,1.3175,1.3027,1.3264
"ILL_213_AGL",1.153,1.0952,1.1305,1.0708,1.931,1.9806,1.9727,2.1799,3.446,3.2376,3.3177,3.1618,0.2597,0.2665,0.257,0.2836,4.5301,4.3518,4.5245,4.3649,1.0841,1.0408,1.0919,1.136,0.7928,0.7151,0.9814,1.0819,1.1723,1.1515,1.1796,1.2038,2.0248,1.9468,2.0255,2.054,1.8919,1.782,1.8816,1.7581,0.2798,0.263,0.2614,0.2437,1.3465,1.3316,1.3485,1.4161,1.1726,1.1304,1.1706,1.1832,28.5804,27.4952,29.6415,29.9387,1.3657,1.3,1.3797,1.4067,1.0302,1.1131,1.0135,1.2027,0.2211,0.2151,0.222,0.2333,0.8041,0.7996,0.8305,0.8519,1.331,1.312,1.3474,1.3894
"ILL_2194_AGL",1.0518,1.0341,0.9816,1.0757,1.9244,2.0586,1.7077,2.1143,3.1535,3.1027,2.9046,2.9236,0.2378,0.252,0.227,0.258,4.3125,4.2926,4.0723,4.2049,1.0327,1.0578,1.0008,1.0865,0.9586,0.9249,0.9714,1.1266,1.1346,1.1433,1.0709,1.1799,1.9296,1.9218,1.8243,1.9503,1.7934,1.7308,1.6701,1.7018,0.2448,0.2517,0.2437,0.2291,1.3092,1.3298,1.2253,1.3662,1.1717,1.1541,1.1109,1.1717,28.2117,27.7297,26.8678,28.5422,1.3302,1.3027,1.2306,1.3579,0.9345,1.1121,0.8948,1.0121,0.2078,0.2121,0.1991,0.2154,0.7841,0.8195,0.7452,0.8302,1.273,1.2817,1.1785,1.3385
"ILL_2507_AGL",1.0678,1.0722,1.1021,1.0918,1.9489,2.0898,2.0261,2.177,3.1801,3.1233,3.2752,3.1178,0.236,0.2502,0.2362,0.2466,4.3914,4.3433,4.5527,4.377,1.0615,1.0519,1.0999,1.0697,0.9853,0.8652,1.1374,1.1202,1.1534,1.168,1.1873,1.1681,1.9847,1.9667,2.0399,1.9879,1.8374,1.7778,1.8419,1.7655,0.2396,0.2391,0.2451,0.2377,1.3469,1.3706,1.3716,1.3796,1.1587,1.1401,1.1858,1.1723,28.3422,27.821,29.576,28.8674,1.3598,1.3328,1.3715,1.3385,0.9592,1.1153,0.9822,1.0842,0.2076,0.2098,0.2136,0.2158,0.7756,0.8062,0.798,0.8213,1.3087,1.3287,1.3332,1.3418
"ILL_2580_AGL",1.117,1.1509,1.0878,1.2115,1.9846,2.284,1.993,2.4799,3.2829,3.3805,3.2209,3.3939,0.2327,0.2573,0.2257,0.2552,4.5097,4.6583,4.5121,4.7757,1.0884,1.1324,1.0775,1.1542,1.0424,1.0007,1.1335,1.2846,1.1694,1.2292,1.1688,1.2637,2.0214,2.0898,2.005,2.1491,1.8692,1.8639,1.8175,1.9134,0.2545,0.253,0.2395,0.2475,1.3576,1.4438,1.3446,1.4939,1.1867,1.2005,1.1675,1.2475,29.0429,29.8486,29.4964,31.8648,1.3725,1.4168,1.3555,1.4693,0.9453,1.1714,0.9839,1.1763,0.2165,0.2271,0.2135,0.233,0.8013,0.8672,0.7892,0.9102,1.3379,1.413,1.3142,1.4649
"ILL_28_AGL",1.1002,1.0624,1.0781,1.0842,1.8349,1.9874,2.0051,2.0756,3.0672,2.9955,3.1505,2.9069,0.2276,0.2556,0.2334,0.2518,4.3366,4.2616,4.5403,4.2411,1.046,1.0437,1.0743,1.0275,0.8399,0.7346,0.9884,0.9153,1.1368,1.1514,1.1892,1.156,1.9512,1.9195,2.025,1.9178,1.8141,1.7547,1.8184,1.7282,0.2494,0.2493,0.2336,0.2311,1.3168,1.3434,1.3661,1.3546,1.1672,1.136,1.2054,1.1595,27.362,26.7226,29.2449,27.5499,1.3148,1.3107,1.3627,1.3129,0.9248,1.0743,0.963,1.0122,0.207,0.209,0.2094,0.2111,0.7866,0.8163,0.7888,0.8142,1.2779,1.3023,1.3098,1.303
"ILL_3025_AGL",1.0538,1.0377,1.0114,1.0931,1.8105,2.079,1.7845,2.1565,3.105,3.0324,3.0415,3.0222,0.2254,0.243,0.2223,0.2453,4.2771,4.2605,4.2826,4.3051,1.0243,1.0179,1.0204,1.0628,0.8839,0.9108,0.9449,1.1293,1.1212,1.1422,1.1335,1.1544,1.9169,1.9255,1.9328,1.969,1.7916,1.7264,1.7717,1.7654,0.2447,0.2275,0.2251,0.2315,1.2993,1.3465,1.3048,1.3697,1.1125,1.1178,1.1117,1.1528,26.9975,27.5111,27.1139,28.938,1.3077,1.3103,1.312,1.3482,0.94,1.0772,0.8916,1.0932,0.2011,0.2068,0.1942,0.2173,0.7537,0.7939,0.7414,0.8257,1.2651,1.3042,1.2626,1.3367
"ILL_313_AGL",1.1732,1.1442,1.1623,1.1394,2.0943,2.2753,2.1696,2.3294,3.4422,3.3553,3.4548,3.2096,0.2578,0.2762,0.2402,0.2528,4.7561,4.6566,4.8447,4.625,1.1488,1.1342,1.1456,1.1127,0.9524,0.8919,1.0945,1.1163,1.248,1.2649,1.2691,1.2443,2.1296,2.0959,2.1585,2.0815,1.9286,1.8721,1.9306,1.8662,0.2761,0.2581,0.2525,0.2381,1.438,1.4664,1.4552,1.4586,1.2145,1.1955,1.2442,1.2053,29.781,29.3956,30.9467,30.4528,1.4398,1.4368,1.4567,1.4354,0.9945,1.1551,1.0151,1.1357,0.2213,0.2272,0.2238,0.2258,0.8498,0.8922,0.8462,0.8906,1.4019,1.4391,1.4156,1.424
"ILL_3347_AGL",1.0855,1.0404,1.0217,1.1039,1.8776,2.0096,1.7907,2.1663,3.1672,2.992,2.9814,3.0715,0.2443,0.2491,0.2282,0.2576,4.3592,4.1858,4.208,4.2862,1.0674,1.0272,1.0189,1.0717,0.9459,0.9036,1.0432,1.119,1.1434,1.1288,1.1164,1.1648,1.9675,1.9009,1.8914,1.9638,1.814,1.7026,1.7444,1.7273,0.2614,0.2364,0.2268,0.2347,1.327,1.3243,1.277,1.3634,1.1457,1.1159,1.1102,1.1627,27.927,27.1758,27.6799,28.8702,1.331,1.2873,1.2964,1.3451,0.9658,1.0809,0.9078,1.0644,0.2056,0.2071,0.2016,0.2185,0.7825,0.7955,0.753,0.8314,1.2876,1.2856,1.2466,1.3374
"ILL_358_AGL",1.2426,1.1483,1.1739,1.1582,2.1865,2.2813,2.1892,2.3904,3.5325,3.3978,3.532,3.3438,0.2499,0.267,0.2456,0.2664,4.9274,4.7435,4.9504,4.7807,1.181,1.1334,1.1675,1.1731,0.9667,0.8393,0.9873,1.1006,1.2915,1.2866,1.2969,1.2852,2.2009,2.1145,2.1982,2.1505,1.9728,1.8973,1.9719,1.899,0.2787,0.2507,0.2551,0.2418,1.4803,1.4869,1.4843,1.4981,1.2795,1.2156,1.2733,1.2417,30.8355,29.5194,31.065,31.2747,1.4795,1.4671,1.4988,1.496,1.0296,1.1758,1.0412,1.1951,0.2252,0.2212,0.2235,0.2347,0.8667,0.8585,0.8432,0.8862,1.4438,1.4379,1.4325,1.458
"ILL_3597_AGL",1.0855,1.0247,1.0623,1.0945,1.8524,1.9885,1.8329,2.1319,3.0902,2.9214,3.0416,2.9731,0.24,0.242,0.2301,0.2478,4.2921,4.106,4.2592,4.2082,1.0405,0.9879,1.0395,1.0594,0.9092,0.9438,1.0295,1.1856,1.1339,1.1139,1.127,1.1441,1.9401,1.8594,1.9263,1.937,1.7699,1.6828,1.7524,1.7472,0.2546,0.2152,0.2352,0.2264,1.3051,1.3062,1.2958,1.3525,1.1395,1.0951,1.1296,1.1441,27.3435,26.9425,27.8307,29.1113,1.3048,1.2753,1.3024,1.3425,0.9122,1.0457,0.9454,1.1211,0.2045,0.2001,0.2032,0.2184,0.7837,0.7693,0.7571,0.819,1.2769,1.2605,1.2564,1.3215
"ILL_4164_AGL",1.1185,1.1063,1.0773,1.0746,2.0916,2.2646,1.9324,2.1099,3.3969,3.2292,3.252,2.9452,0.2612,0.2674,0.2433,0.2538,4.617,4.5289,4.4984,4.2065,1.0961,1.0691,1.0753,1.039,0.9635,0.8874,0.9369,1.0625,1.2215,1.2167,1.1944,1.1585,2.0837,2.0498,2.0217,1.9485,1.8796,1.8175,1.8466,1.7189,0.2611,0.2403,0.2409,0.2199,1.4127,1.4325,1.3635,1.3612,1.1953,1.1771,1.1482,1.1497,29.3531,28.8198,28.472,28.2537,1.4175,1.4011,1.3792,1.3471,0.9828,1.1084,0.9807,1.0049,0.2157,0.2186,0.2114,0.2165,0.838,0.8845,0.81,0.8235,1.3771,1.3912,1.3354,1.3345
"ILL_4400_AGL",1.1451,1.1314,1.1842,1.1682,2.0939,2.2582,2.2682,2.3717,3.3389,3.2593,3.523,3.3485,0.2553,0.2686,0.252,0.2756,4.6869,4.5748,4.9935,4.715,1.1416,1.1352,1.1874,1.1673,0.9889,0.9591,1.1222,1.0195,1.2181,1.2206,1.2949,1.2567,2.098,2.0641,2.2209,2.1239,1.8945,1.8638,1.9867,1.894,0.2682,0.2568,0.2569,0.2597,1.413,1.4431,1.4952,1.4778,1.2164,1.1933,1.2762,1.2259,29.6047,29.505,31.7916,30.7549,1.4067,1.4132,1.4938,1.4585,0.9979,1.173,1.0616,1.2185,0.2241,0.2365,0.2364,0.2428,0.8429,0.8792,0.8823,0.9126,1.375,1.4123,1.4598,1.4521
"ILL_4605_AGL",1.1638,1.1004,1.0966,1.1818,1.9542,2.0847,1.9087,2.3135,3.233,3.0996,3.119,3.1757,0.2501,0.2598,0.2388,0.2682,4.5017,4.3258,4.3629,4.5374,1.1153,1.0869,1.0793,1.1449,0.8548,0.8695,0.9362,1.0643,1.1889,1.1728,1.1665,1.2307,2.0472,1.9723,1.9853,2.0771,1.8766,1.7978,1.8311,1.877,0.273,0.2534,0.2449,0.2505,1.3827,1.3797,1.352,1.4567,1.206,1.1729,1.189,1.2219,28.3905,28.0484,28.3673,30.2525,1.3612,1.3372,1.3419,1.4253,0.9834,1.134,0.9908,1.1848,0.2119,0.2173,0.2102,0.2325,0.8017,0.8338,0.7805,0.8927,1.339,1.341,1.3074,1.4235
"ILL_4609_AGL",1.1196,1.1104,1.1083,1.0933,1.9863,2.1128,1.8858,2.1813,3.2816,3.129,3.1932,3.155,0.2503,0.2608,0.2337,0.2694,4.5436,4.3072,4.4907,4.3928,1.0953,1.0839,1.0898,1.087,0.8903,0.9171,0.9965,0.9753,1.1838,1.1533,1.1679,1.1788,2.0515,1.9696,2.0024,1.9999,1.8687,1.7813,1.8377,1.7957,0.2642,0.2424,0.2524,0.2392,1.3804,1.3674,1.3425,1.3906,1.1789,1.1445,1.1446,1.1458,28.6897,28.2901,28.7739,29.241,1.3763,1.346,1.3614,1.3775,0.9903,1.1491,0.9989,1.1726,0.2153,0.2201,0.2155,0.2254,0.8263,0.8261,0.7955,0.8527,1.3488,1.337,1.3117,1.3658
"ILL_4665_AGL",1.1566,1.1125,1.1898,1.1177,2.0309,2.221,2.1263,2.1989,3.2906,3.2193,3.4099,3.0928,0.2488,0.2724,0.2476,0.2692,4.638,4.5212,4.7932,4.433,1.1296,1.1491,1.163,1.122,0.9253,1.0392,1.0355,1.0573,1.2163,1.2193,1.2519,1.2106,2.1044,2.0504,2.1475,2.0263,1.9256,1.8327,1.9455,1.8213,0.2731,0.2511,0.2642,0.242,1.4172,1.4256,1.4389,1.4167,1.2283,1.1911,1.2532,1.185,29.7951,29.7568,31.0195,29.6612,1.4099,1.41,1.4471,1.4008,1.0138,1.1565,1.0533,1.1197,0.2207,0.2346,0.2317,0.2314,0.8253,0.8668,0.8555,0.866,1.374,1.3987,1.4068,1.3926
"ILL_4671_AGL",1.2578,1.1615,1.1917,1.1482,2.1474,2.2772,2.2385,2.2882,3.4537,3.2708,3.3912,3.1161,0.2449,0.2618,0.2384,0.2679,4.9175,4.6666,4.8928,4.5361,1.1877,1.1245,1.1692,1.1555,0.981,0.8937,1.0884,1.093,1.2792,1.2462,1.2595,1.2461,2.2269,2.0897,2.1809,2.0799,2.0277,1.8867,1.9403,1.8377,0.2889,0.255,0.251,0.2412,1.4861,1.4622,1.461,1.4525,1.2929,1.2156,1.2992,1.22,31.4944,29.4703,31.8484,30.2316,1.471,1.4127,1.4496,1.4384,1.101,1.2133,1.0682,1.1387,0.231,0.2281,0.2344,0.2351,0.8706,0.8711,0.8518,0.8772,1.454,1.4239,1.4101,1.439
"ILL_4768_AGL",1.1387,1.1306,1.208,1.1181,2.0347,2.1739,2.2155,2.217,3.3346,3.2477,3.5646,3.151,0.2544,0.266,0.266,0.2786,4.5083,4.4643,4.8465,4.4248,1.102,1.1027,1.1881,1.1156,0.8967,0.7771,1.0774,0.9156,1.1797,1.1969,1.2682,1.2133,2.0445,2.0408,2.1807,2.0692,1.8243,1.8077,1.9433,1.7642,0.2701,0.2594,0.2695,0.2415,1.3658,1.4104,1.4594,1.4252,1.1772,1.1662,1.2291,1.2126,28.7609,28.4201,31.066,29.456,1.375,1.3886,1.4755,1.408,0.9634,1.1757,1.0449,1.0572,0.2194,0.226,0.2395,0.2332,0.8184,0.8618,0.8678,0.8539,1.3475,1.3839,1.4473,1.4043
"ILL_4782_AGL",1.1615,1.0242,1.1933,1.1171,2.0545,1.866,2.2017,2.1906,3.4201,2.9262,3.5374,3.1439,0.257,0.2507,0.2627,0.2696,4.5528,4.0651,4.8217,4.4093,1.1138,1.0058,1.1879,1.1066,0.8869,0.8518,1.1031,0.9775,1.1835,1.118,1.2549,1.1919,2.0593,1.8527,2.1594,2.0434,1.8736,1.7101,1.9376,1.7718,0.2854,0.2466,0.2664,0.2482,1.378,1.3009,1.444,1.4033,1.1805,1.0995,1.2187,1.1955,29.1237,26.2845,31.169,29.4273,1.3894,1.2585,1.4718,1.3892,1.0405,1.1265,1.0556,1.0752,0.2215,0.1979,0.2392,0.2323,0.8268,0.7964,0.8652,0.8472,1.3593,1.2437,1.4318,1.3886
"ILL_4783_AGL",1.2755,1.101,1.1882,1.1117,2.0825,2.053,2.1439,2.0266,3.3976,3.1075,3.3941,2.9763,0.2505,0.2633,0.242,0.2556,4.8559,4.4103,4.8532,4.3315,1.1952,1.0946,1.1647,1.0808,0.8925,0.758,1.041,0.8628,1.2765,1.1874,1.2513,1.1762,2.2026,1.9832,2.1642,1.9774,2.0063,1.8293,1.9653,1.8113,0.2874,0.2596,0.2673,0.2493,1.4796,1.3949,1.4568,1.3858,1.2612,1.1473,1.2558,1.1703,30.6194,27.6954,31.1757,28.0608,1.4578,1.3365,1.4474,1.339,1.0517,1.1873,1.0576,1.0765,0.2328,0.2201,0.2315,0.2162,0.8896,0.8488,0.8628,0.8273,1.4521,1.3554,1.4138,1.3508
"ILL_4804_AGL",1.2324,1.211,1.123,1.1615,2.0893,2.2448,1.8885,2.0244,3.4379,3.3383,3.1725,2.9924,0.2539,0.2521,0.2334,0.2329,4.7227,4.73,4.4759,4.3039,1.1702,1.1406,1.0963,1.0697,1.0958,0.9781,1.0451,1.0423,1.2373,1.2494,1.1633,1.1624,2.1437,2.1249,2.0103,1.9841,1.949,1.9174,1.8392,1.7947,0.2734,0.2579,0.2525,0.245,1.4371,1.4772,1.3448,1.3669,1.241,1.2288,1.1924,1.1997,30.6795,29.5017,29.2187,28.5508,1.4347,1.4192,1.336,1.3221,1.0333,1.1685,0.9868,1.0279,0.2291,0.2274,0.2153,0.2191,0.8697,0.8774,0.7904,0.7927,1.4143,1.4357,1.3012,1.3397
"ILL_4875_AGL",1.182,1.1064,1.1563,1.1446,1.9914,1.9414,2.0238,2.0688,3.3841,3.1052,3.4338,3.155,0.2672,0.2633,0.2466,0.2587,4.6035,4.2694,4.6452,4.375,1.1443,1.0692,1.1319,1.0872,0.931,0.7719,0.9962,0.9599,1.2195,1.1747,1.2135,1.2002,2.0971,1.947,2.0858,2.0025,1.9575,1.8182,1.9258,1.8328,0.2819,0.2578,0.2694,0.2543,1.4123,1.3573,1.3918,1.3819,1.177,1.1081,1.1895,1.1506,29.1786,27.0485,29.3916,28.8325,1.4426,1.3388,1.4197,1.372,1.0427,1.1661,1.0333,1.0915,0.2209,0.2107,0.217,0.221,0.8464,0.8245,0.8486,0.8241,1.3911,1.3353,1.3758,1.3821
"ILL_4956_AGL",1.2675,1.2572,1.2385,1.2156,2.1834,2.4802,2.24,2.4249,3.5697,3.7044,3.5809,3.5549,0.2626,0.2895,0.2646,0.2822,5.0018,5.1353,4.9901,4.9651,1.2247,1.2437,1.2039,1.212,0.9507,0.8716,1.031,1.058,1.2965,1.3577,1.2949,1.3186,2.2533,2.2786,2.2228,2.2103,2.0614,2.0471,2.0205,1.9782,0.2982,0.2905,0.2769,0.2713,1.5087,1.5825,1.4943,1.5267,1.2901,1.2811,1.2907,1.2638,31.5043,31.3552,32.1394,31.6945,1.5092,1.5422,1.5072,1.5115,1.1094,1.2887,1.1018,1.1667,0.2352,0.2413,0.2356,0.2394,0.9014,0.9688,0.8895,0.9277,1.4698,1.5484,1.4556,1.5063
"ILL_5058_AGL",1.3428,1.1999,1.1689,1.1285,2.2142,2.1597,2.061,2.168,3.6134,3.1965,3.3424,3.2389,0.2763,0.2534,0.2435,0.2626,4.9326,4.5668,4.69,4.5373,1.2335,1.1329,1.1528,1.1293,1.0012,0.8426,1.0441,0.868,1.3308,1.2346,1.2293,1.2129,2.254,2.0651,2.0938,2.0427,2.0412,1.8548,1.894,1.818,0.2822,0.2533,0.2476,0.2595,1.5304,1.4385,1.4069,1.4096,1.2896,1.2105,1.2266,1.215,31.3418,28.1939,30.0677,28.83,1.5327,1.3917,1.4279,1.3775,1.0662,1.114,1.0123,1.0722,0.2391,0.2239,0.2271,0.2242,0.8854,0.8485,0.8448,0.8313,1.504,1.4069,1.3727,1.3869
"ILL_5151_AGL",1.2334,1.1958,1.2343,1.1841,2.2616,2.4137,2.4109,2.3136,3.7076,3.65,3.8368,3.3463,0.2723,0.2939,0.2725,0.255,5.029,4.9224,5.196,4.6505,1.2199,1.1966,1.2579,1.1461,1.0343,0.8205,1.2206,1.1515,1.2914,1.286,1.3253,1.2316,2.2374,2.2065,2.2965,2.1175,2.0204,1.9404,2.0468,1.8492,0.2942,0.2844,0.2775,0.2492,1.5008,1.524,1.531,1.4489,1.256,1.2394,1.2849,1.2353,31.3765,30.0945,33.0723,30.3618,1.5195,1.4887,1.5552,1.4269,1.0844,1.2713,1.1456,1.089,0.2356,0.2363,0.2462,0.2316,0.9004,0.9318,0.9137,0.8425,1.4709,1.4771,1.5054,1.426
"ILL_5209_AGL",1.1665,1.1071,1.1651,1.1391,2.0368,2.087,2.0779,2.1693,3.3987,3.2912,3.5024,3.2315,0.2495,0.2815,0.2569,0.2748,4.6809,4.4394,4.8345,4.5279,1.1299,1.1084,1.1655,1.13,0.966,0.7451,1.0119,0.9371,1.2335,1.2092,1.2643,1.249,2.099,2.0044,2.147,2.0667,1.9503,1.8322,1.9566,1.847,0.262,0.2687,0.2728,0.255,1.4161,1.4037,1.4384,1.4333,1.2171,1.154,1.2255,1.2035,29.7402,27.7828,30.6707,29.2827,1.4438,1.3826,1.4632,1.4337,0.9937,1.2426,1.0563,1.0625,0.2201,0.2148,0.2247,0.2234,0.8414,0.8776,0.8694,0.8672,1.3872,1.3505,1.3996,1.4126
"ILL_5480_AGL",1.3581,1.1977,1.277,1.2079,2.2184,2.2367,2.2051,2.1913,3.6362,3.4176,3.5725,3.3212,0.2666,0.2685,0.2559,0.2648,4.9682,4.6976,4.9254,4.6217,1.253,1.1761,1.2226,1.1738,1.0237,0.87,1.1186,0.9895,1.3297,1.2632,1.2956,1.2525,2.2754,2.1173,2.2367,2.1119,2.038,1.9131,1.9905,1.8816,0.2782,0.2719,0.2664,0.2695,1.5293,1.4757,1.4996,1.4572,1.3181,1.2001,1.2963,1.2202,31.9567,29.351,31.8293,29.6443,1.5231,1.4368,1.4987,1.4282,1.1054,1.2501,1.0837,1.1235,0.2501,0.2333,0.2431,0.2335,0.8987,0.9013,0.8811,0.8693,1.5008,1.4413,1.4635,1.4379
"ILL_5639_AGL",1.103,1.0326,1.1118,1.0878,1.9215,1.8612,1.9438,1.9733,3.1971,2.958,3.2015,3.0353,0.2354,0.2302,0.2224,0.2316,4.3733,4.1185,4.4963,4.2982,1.0492,0.993,1.0659,1.0321,0.9114,0.7769,1.0364,0.8999,1.1541,1.117,1.1763,1.1681,1.9764,1.8624,2.015,1.9454,1.8459,1.7054,1.8245,1.7613,0.2464,0.2431,0.2463,0.2464,1.3449,1.3027,1.3497,1.3454,1.1797,1.1173,1.1983,1.1639,28.1737,25.6923,29.0103,27.3622,1.3545,1.2533,1.3581,1.3088,0.9532,1.0502,0.9239,0.9852,0.208,0.1935,0.209,0.2021,0.7815,0.7534,0.7711,0.7771,1.3007,1.2419,1.3054,1.3169
"ILL_5722_AGL",1.1891,1.1776,1.1462,1.0891,2.2102,2.338,2.1855,2.0867,3.4674,3.3537,3.4279,2.9393,0.255,0.2664,0.247,0.2637,4.8302,4.7123,4.8261,4.1991,1.1506,1.1213,1.1493,1.0241,1.0293,0.8127,1.1224,0.8095,1.2534,1.2529,1.2306,1.1574,2.1531,2.1231,2.1276,1.9337,1.9822,1.8972,1.9177,1.7274,0.252,0.2458,0.2429,0.2232,1.4581,1.4885,1.4275,1.364,1.2396,1.2026,1.2207,1.1411,30.5599,28.9246,30.5386,26.8375,1.4856,1.4461,1.4507,1.324,1.0229,1.182,1.0215,0.9839,0.2255,0.2196,0.2235,0.2042,0.8582,0.866,0.8458,0.7927,1.4297,1.4406,1.3883,1.3257
"ILL_5883_AGL",1.166,1.1714,1.2016,1.1376,2.1391,2.342,2.3485,2.3192,3.4638,3.5001,3.6247,3.3129,0.2513,0.2827,0.2526,0.2661,4.7782,4.8278,5.1265,4.677,1.1285,1.1658,1.1961,1.1221,0.9798,0.8168,1.1633,0.9898,1.2517,1.3096,1.3307,1.2609,2.1286,2.1635,2.2581,2.0959,1.9416,1.9315,2.0123,1.8811,0.2604,0.2684,0.2461,0.2428,1.442,1.5205,1.5261,1.4664,1.2363,1.2279,1.2922,1.2063,30.0542,29.5256,32.4985,29.8593,1.459,1.4857,1.5499,1.4611,0.9935,1.2452,1.0593,1.1167,0.2163,0.2205,0.2284,0.2228,0.8459,0.9218,0.8809,0.873,1.3923,1.463,1.4685,1.4277
"ILL_5888_AGL",1.0598,1.0661,0.9969,1.067,1.7268,1.9165,1.6247,1.8529,2.9922,2.9487,2.8536,2.8701,0.2322,0.2479,0.2281,0.248,4.0581,4.0715,3.938,3.9872,1.0231,1.0344,0.998,1.0289,0.8995,0.8558,0.9442,0.9641,1.0831,1.1191,1.0663,1.1052,1.8555,1.8613,1.8053,1.8428,1.7494,1.6982,1.6783,1.6804,0.246,0.2422,0.2325,0.2426,1.257,1.306,1.2232,1.2785,1.1288,1.1106,1.0953,1.1218,26.65,26.1193,25.9951,26.6155,1.263,1.2528,1.225,1.2452,0.9388,1.1269,0.9038,1.0157,0.203,0.2035,0.1937,0.2028,0.7534,0.7965,0.7247,0.7756,1.2288,1.265,1.1817,1.2527
"ILL_5945_AGL",1.2003,1.1336,1.2142,1.1415,2.1895,2.2646,2.2426,2.1068,3.6227,3.3633,3.702,3.1747,0.2545,0.2556,0.2563,0.2491,4.8241,4.6107,4.9841,4.3743,1.1716,1.146,1.2212,1.0911,1.0762,0.8961,1.1155,0.9186,1.2458,1.2138,1.2893,1.1691,2.1448,2.0852,2.2277,2.0036,1.953,1.8284,1.9761,1.7675,0.2773,0.263,0.2755,0.2528,1.4407,1.436,1.4749,1.3675,1.2129,1.1716,1.238,1.1749,30.5028,29.0378,31.7229,28.1708,1.4766,1.4185,1.5051,1.3513,1.0501,1.226,1.0945,1.049,0.2331,0.2297,0.2457,0.2227,0.8597,0.8806,0.8694,0.8264,1.4288,1.4049,1.4758,1.3536
"ILL_6002_AGL",1.2147,1.1661,1.1896,1.1773,2.1359,2.2786,2.1968,2.3157,3.4821,3.367,3.4782,3.3819,0.2615,0.2754,0.2497,0.2782,4.7852,4.7084,4.9311,4.7315,1.1933,1.158,1.1905,1.1745,0.9792,0.8245,1.0052,0.914,1.2514,1.2642,1.2919,1.2788,2.1624,2.1131,2.2027,2.1342,1.9687,1.9088,1.9833,1.916,0.288,0.2618,0.2535,0.2579,1.4604,1.4843,1.4911,1.4863,1.2314,1.205,1.2644,1.2227,30.3573,29.0785,31.1905,30.2117,1.4665,1.438,1.4914,1.4661,1.0989,1.2216,1.0743,1.1567,0.2275,0.2291,0.2298,0.236,0.872,0.8858,0.862,0.8822,1.4239,1.4374,1.4446,1.4667
"ILL_618_AGL",1.2712,1.1291,1.1844,1.1571,2.1856,2.0332,2.0635,2.2026,3.6646,3.3384,3.471,3.3176,0.2733,0.2766,0.2535,0.2651,4.8778,4.4045,4.7295,4.5788,1.1981,1.0844,1.1551,1.0878,0.9938,0.7187,1.0805,0.9523,1.2776,1.1953,1.237,1.2324,2.1957,1.9914,2.1213,2.0616,2.0264,1.8189,1.9498,1.877,0.2856,0.2772,0.2639,0.2543,1.465,1.3738,1.4135,1.4185,1.2758,1.1496,1.2271,1.1952,31.4811,27.6362,30.6121,30.1511,1.4975,1.3497,1.4474,1.399,1.1087,1.1678,1.029,1.1254,0.2412,0.2195,0.2309,0.229,0.8894,0.8353,0.8494,0.8416,1.4549,1.3539,1.3996,1.41
"ILL_6182_AGL",1.2205,1.1596,1.1835,1.1463,2.2242,2.2253,2.2012,2.1995,3.55,3.3857,3.5121,3.2715,0.2545,0.2688,0.2519,0.2526,4.8871,4.6152,4.8742,4.611,1.1827,1.1319,1.1767,1.1148,1.1455,0.8878,1.1538,0.9916,1.2687,1.2325,1.2735,1.2334,2.1866,2.0732,2.1704,2.0745,1.967,1.8683,1.9559,1.8632,0.2723,0.2608,0.2453,0.2498,1.4664,1.4459,1.4659,1.4382,1.25,1.1749,1.2408,1.1918,31.5076,29.0452,31.4253,29.5272,1.4694,1.4013,1.4815,1.4002,1.0435,1.2149,1.0663,1.0866,0.2325,0.2249,0.2298,0.224,0.8935,0.8668,0.8561,0.847,1.4467,1.4107,1.4261,1.4152
"ILL_6211_AGL",1.2424,1.1515,1.2291,1.1088,2.1817,2.1671,2.2395,2.0881,3.5021,3.2571,3.5633,3.0376,0.2567,0.2626,0.2544,0.2585,4.9243,4.5452,4.9492,4.3425,1.1979,1.1416,1.2133,1.0823,0.9733,0.7996,1.1441,0.8377,1.2872,1.2257,1.2938,1.1919,2.2064,2.0551,2.2094,1.9796,2.0028,1.8553,1.9947,1.7871,0.2792,0.2644,0.2591,0.2467,1.4797,1.4337,1.484,1.3805,1.2729,1.2009,1.2766,1.1726,30.9141,28.2257,31.799,28.1068,1.4678,1.3891,1.4969,1.3525,1.0362,1.2047,1.0792,1.06,0.2307,0.2242,0.2379,0.2186,0.8969,0.8579,0.8873,0.8342,1.4632,1.3916,1.4592,1.3616
"ILL_624_AGL",1.2102,1.1712,1.1088,1.1319,2.126,2.2474,1.9332,2.1108,3.4459,3.3888,3.2301,3.2502,0.2541,0.2694,0.2289,0.2542,4.7559,4.6281,4.4967,4.456,1.1527,1.1213,1.0774,1.0888,1.0516,0.8597,1.0517,0.9228,1.2361,1.2258,1.1592,1.1749,2.1471,2.0723,2.0092,2.003,1.9456,1.8752,1.8368,1.8177,0.2687,0.2593,0.2445,0.2538,1.437,1.4446,1.3419,1.3761,1.234,1.1842,1.178,1.1708,30.4741,29.0957,28.9736,28.9005,1.431,1.3951,1.3423,1.3407,1.0134,1.2054,0.9428,1.103,0.2301,0.2264,0.215,0.2234,0.8686,0.8651,0.7815,0.8142,1.4199,1.4146,1.3071,1.3544
"ILL_6821_AGL",1.1184,1.1518,1.1428,1.0069,1.9801,2.1798,2.0829,1.757,3.3754,3.3616,3.4575,2.7071,0.2634,0.2719,0.2496,0.2479,4.5579,4.6139,4.8204,3.8663,1.1085,1.115,1.1449,0.9825,0.8538,0.777,0.9358,0.7659,1.1906,1.2559,1.2628,1.0902,2.0397,2.0789,2.1477,1.792,1.8818,1.9031,1.9486,1.6542,0.2801,0.2605,0.2592,0.2285,1.3784,1.4588,1.4465,1.2615,1.1839,1.1705,1.2076,1.0653,28.7516,28.5216,29.9045,25.0801,1.4007,1.4328,1.4621,1.248,0.9983,1.189,1.0278,0.9392,0.2133,0.219,0.2214,0.1946,0.8202,0.8699,0.8343,0.7466,1.3345,1.4231,1.4089,1.2337
"ILL_6853_AGL",1.1365,1.1473,1.1459,1.1162,1.9582,2.2085,1.9804,2.1592,3.2629,3.3171,3.2428,3.1139,0.2619,0.2693,0.2415,0.2534,4.5544,4.6442,4.6193,4.4553,1.1174,1.1393,1.1205,1.0827,0.8389,0.8351,0.9493,1.0208,1.1942,1.2404,1.2055,1.2,2.0425,2.0703,2.0615,2.0026,1.8916,1.8712,1.8723,1.7993,0.2776,0.2656,0.2511,0.2398,1.3828,1.4482,1.3844,1.3953,1.1881,1.1886,1.225,1.1855,28.6164,28.6468,29.7938,29.0134,1.3894,1.4057,1.3869,1.3563,1.0124,1.2196,1.0239,1.0504,0.2152,0.2261,0.2219,0.2197,0.8475,0.89,0.8195,0.8368,1.346,1.4051,1.3369,1.3639
"ILL_7089_AGL",1.2329,1.1604,1.153,1.1165,2.2394,2.2027,2.0397,2.2123,3.6417,3.4113,3.3574,3.2805,0.2791,0.294,0.2589,0.2679,4.8636,4.601,4.6078,4.5288,1.1721,1.1443,1.1356,1.101,1.0034,0.7666,1.0654,1.0331,1.2799,1.2682,1.2165,1.2295,2.1923,2.0853,2.0736,2.0471,1.9915,1.8828,1.8856,1.833,0.2927,0.2723,0.2663,0.2538,1.4811,1.4663,1.3942,1.4178,1.2626,1.1671,1.1951,1.1848,31.1008,28.4398,29.848,29.5933,1.4901,1.4528,1.4173,1.4073,1.0493,1.2093,1.0078,1.0745,0.23,0.227,0.2256,0.2211,0.8757,0.8894,0.8413,0.8573,1.4495,1.4304,1.3675,1.3939
"ILL_7558_AGL",1.1277,1.1093,1.1125,1.1199,1.9952,2.1115,1.928,2.1054,3.2497,3.1754,3.1338,3.104,0.2528,0.2559,0.2444,0.2552,4.496,4.428,4.3513,4.3916,1.1043,1.0858,1.0782,1.0789,0.9532,0.7752,0.997,0.9457,1.1873,1.1977,1.1604,1.1924,2.0341,2.0031,1.9801,2.002,1.867,1.7998,1.8022,1.8062,0.2692,0.2588,0.2481,0.2487,1.377,1.4048,1.3396,1.3902,1.1906,1.1774,1.1878,1.1722,28.8898,27.301,28.5468,28.419,1.3814,1.3415,1.3443,1.356,1.0051,1.1559,0.9506,1.062,0.2149,0.2107,0.2137,0.2187,0.828,0.8525,0.7939,0.8434,1.3401,1.3509,1.2964,1.3583
"ILL_7663_AGL",1.1802,1.2595,1.1261,1.14,2.0821,2.366,2.0538,2.2466,3.4213,3.5542,3.2927,3.2647,0.2646,0.2803,0.2424,0.2687,4.6752,4.9105,4.5966,4.5256,1.16,1.1961,1.1284,1.1232,1.0786,0.8837,1.1153,1.0877,1.2194,1.3255,1.2138,1.219,2.1051,2.2027,2.0736,2.0467,1.9158,1.9748,1.8859,1.8358,0.2796,0.2779,0.2435,0.2508,1.4192,1.5355,1.4021,1.4221,1.2129,1.24,1.2113,1.1979,29.904,30.1926,29.9539,29.8647,1.4443,1.5079,1.4102,1.4036,1.0158,1.2392,1.02,1.1174,0.2255,0.2365,0.2193,0.2275,0.8591,0.9574,0.8228,0.8639,1.3799,1.502,1.3563,1.3891
"ILL_7668_AGL",1.1914,1.1732,1.148,1.184,2.2436,2.4509,2.1257,2.3949,3.5954,3.4503,3.4029,3.3587,0.2669,0.2599,0.2403,0.2548,4.8749,4.7761,4.7252,4.6452,1.1891,1.1743,1.161,1.1463,1.1771,1.2546,1.2407,1.3015,1.266,1.2592,1.2246,1.2346,2.186,2.1443,2.1148,2.1107,1.9615,1.8779,1.8835,1.836,0.2769,0.2427,0.2494,0.2412,1.4678,1.4894,1.4089,1.4516,1.2448,1.2166,1.2161,1.2394,31.4998,31.0335,30.8088,31.1143,1.4846,1.4549,1.4176,1.4209,1.0746,1.2375,1.0346,1.108,0.2313,0.2351,0.229,0.2313,0.8764,0.9021,0.8378,0.8655,1.4345,1.4474,1.3805,1.4202
"ILL_7716_AGL",1.3404,1.0533,1.1535,1.1713,2.0824,1.9047,1.9945,2.1904,3.4115,2.9745,3.2486,3.2805,0.2932,0.2567,0.2392,0.2675,4.535,4.1067,4.5642,4.5865,1.1794,1.0527,1.1155,1.1345,0.8664,0.7273,0.9661,0.9496,1.2645,1.131,1.2032,1.2384,2.1174,1.8786,2.0671,2.0782,1.9217,1.7272,1.8944,1.8835,0.2656,0.2521,0.2493,0.2628,1.4568,1.3222,1.3967,1.4457,1.2754,1.1207,1.2232,1.2035,29.4359,26.0401,29.4544,29.3671,1.449,1.2682,1.3875,1.4092,0.9918,1.1343,1.0183,1.1059,0.227,0.2044,0.2173,0.2276,0.8059,0.7911,0.7975,0.8544,1.4058,1.2714,1.3531,1.4216
"ILL_7747_AGL",1.2024,1.1516,1.1545,1.1957,2.0931,2.1577,2.0467,2.3629,3.4289,3.3174,3.3809,3.4285,0.2589,0.2705,0.25,0.2702,4.8075,4.5692,4.7161,4.8199,1.1807,1.1278,1.15,1.1733,0.9003,0.778,0.9803,0.9941,1.254,1.2247,1.2308,1.2764,2.1602,2.0555,2.1038,2.1612,1.9537,1.8487,1.9008,1.9171,0.2772,0.254,0.2564,0.2536,1.4516,1.4358,1.4118,1.492,1.227,1.1634,1.2022,1.2326,29.9606,28.2184,29.8674,30.6533,1.4475,1.3899,1.4211,1.4593,1.0492,1.1853,1.0288,1.1689,0.2265,0.2209,0.224,0.2338,0.8759,0.8602,0.834,0.8925,1.4257,1.4033,1.3865,1.4714
"ILL_7946_AGL",1.1359,1.0924,NA,1.0138,1.9615,2.1172,NA,1.8239,3.3156,3.1911,NA,2.7754,0.2601,0.2724,NA,0.2579,4.5567,4.4352,NA,3.9212,1.1004,1.0873,NA,0.9925,0.8412,0.8441,NA,0.8161,1.2208,1.2136,NA,1.1103,2.0512,2.0049,NA,1.8128,1.8787,1.8156,NA,1.6494,0.2693,0.246,NA,0.2258,1.3891,1.407,NA,1.2747,1.1974,1.1538,NA,1.0939,28.6883,28.1263,NA,25.8176,1.3958,1.3844,NA,1.2716,0.9841,1.1434,NA,0.9553,0.2134,0.2141,NA,0.1995,0.8501,0.8452,NA,0.7623,1.3587,1.3574,NA,1.2407
"ILL_7978_AGL",1.2539,1.1699,1.2616,1.2268,2.1857,2.1566,2.2556,2.2465,3.5258,3.293,3.6368,3.3146,0.2676,0.2792,0.267,0.2871,4.811,4.5088,4.9757,4.5822,1.1973,1.1473,1.2422,1.1604,1.086,0.8096,1.1529,0.8871,1.2503,1.2083,1.2911,1.2559,2.1666,2.0418,2.2312,2.1091,1.9486,1.8371,1.9698,1.8709,0.285,0.264,0.2747,0.2616,1.4449,1.4187,1.4861,1.4616,1.264,1.1658,1.2727,1.2192,30.945,28.2673,31.8495,29.6276,1.4479,1.3919,1.4965,1.4407,1.0594,1.2102,1.1088,1.1436,0.2378,0.2301,0.2478,0.2374,0.8993,0.8754,0.8926,0.8835,1.4311,1.3882,1.4615,1.4523
"ILL_7979_AGL",1.1147,1.1478,1.178,1.108,1.9784,2.2022,2.1536,2.1619,3.2553,3.2585,3.4376,3.1193,0.2502,0.2513,0.2477,0.249,4.4883,4.4902,4.7885,4.4394,1.1117,1.1158,1.1736,1.0788,1.0063,1.097,1.1381,1.0215,1.179,1.196,1.2398,1.1857,2.0326,2.0308,2.144,2.0081,1.8578,1.831,1.9091,1.8046,0.2615,0.241,0.2643,0.236,1.3722,1.4132,1.4336,1.3932,1.1794,1.173,1.2389,1.1687,28.9023,29.1095,30.6895,28.9345,1.3795,1.381,1.4337,1.3556,1.0174,1.1689,1.0381,1.0876,0.2125,0.2205,0.2282,0.2175,0.8112,0.8463,0.8443,0.8266,1.3313,1.3717,1.3972,1.3616
"ILL_8007_AGL",1.1197,1.0472,1.1295,1.0946,1.9718,2.1474,2.0578,2.107,3.2555,3.1226,3.3189,3.0873,0.2498,0.2513,0.2455,0.2433,4.5597,4.4278,4.692,4.3905,1.1009,1.0613,1.1113,1.0534,0.9014,0.9478,0.9479,0.9894,1.2067,1.1938,1.2368,1.1901,2.0523,1.9787,2.0917,1.988,1.8961,1.7942,1.8922,1.7884,0.2624,0.2286,0.2537,0.2394,1.3937,1.3924,1.4159,1.3812,1.1795,1.1353,1.2118,1.1758,29.152,28.5868,29.9874,28.7665,1.3869,1.3545,1.4003,1.3335,1.0378,1.1517,1.0304,1.0295,0.2132,0.2136,0.217,0.2118,0.8162,0.8331,0.8211,0.8052,1.3557,1.3443,1.3778,1.349
"ILL_8009_AGL",1.1131,1.1162,1.071,1.1779,2.0391,2.2185,1.9012,2.2738,3.3566,3.3697,3.2339,3.3598,0.2565,0.2606,0.2418,0.2596,4.5753,4.5774,4.4314,4.5759,1.108,1.1012,1.0693,1.111,0.9922,0.9744,0.9937,1.1053,1.1992,1.2172,1.1722,1.2332,2.0567,2.0443,1.9869,2.0737,1.8657,1.8235,1.8127,1.847,0.2591,0.2467,0.2374,0.2466,1.3888,1.425,1.3425,1.4401,1.1777,1.1501,1.146,1.2086,29.215,28.7924,28.3904,29.91,1.3962,1.3784,1.3448,1.4023,1.0204,1.1707,0.9634,1.0812,0.215,0.2181,0.2098,0.2244,0.8101,0.8511,0.7773,0.8465,1.3499,1.3817,1.3082,1.4114
"ILL_8010_AGL",1.19,1.2001,1.1176,1.1924,2.2344,2.4908,2.0996,2.4693,3.4858,3.5833,3.3658,3.4459,0.2541,0.2758,0.24,0.2589,4.7806,4.8644,4.6227,4.7715,1.1508,1.1811,1.1253,1.1509,1.1434,1.0606,1.2341,1.2983,1.2256,1.2829,1.1973,1.2555,2.1321,2.1827,2.0577,2.1451,1.8976,1.9064,1.8354,1.8646,0.2715,0.2529,0.2334,0.2397,1.4332,1.5171,1.3823,1.4832,1.2409,1.2573,1.2039,1.2641,30.6015,30.8259,30.16,31.5726,1.4257,1.4706,1.3907,1.4374,0.979,1.2115,0.9554,1.0723,0.2241,0.2327,0.2218,0.2329,0.8538,0.8979,0.8007,0.865,1.395,1.4647,1.3441,1.446
"ILL_8072_AGL",1.1886,1.0955,1.0622,1.1604,2.0281,1.9789,1.846,2.0822,3.3347,3.025,2.9953,2.9625,0.2494,0.251,0.2288,0.2384,4.6971,4.2622,4.2885,4.3053,1.1495,1.0532,1.0542,1.0554,0.9147,0.7094,0.9848,0.9188,1.2289,1.1715,1.1268,1.1875,2.1153,1.9352,1.932,1.9772,1.919,1.7731,1.7518,1.789,0.2838,0.2451,0.2293,0.2285,1.4136,1.3608,1.2944,1.3779,1.2296,1.1367,1.1676,1.1974,29.3446,26.8305,28.3138,27.9907,1.4067,1.309,1.2947,1.3446,0.9895,1.1802,0.952,0.9848,0.2205,0.207,0.2077,0.2107,0.842,0.8105,0.7424,0.7973,1.3861,1.3179,1.247,1.349
"ILL_8174_AGL",1.2172,1.24,1.2728,1.1302,2.0242,2.1441,2.1642,2.0541,3.3499,3.3299,3.5288,3.0909,0.2579,0.2741,0.259,0.2529,4.6931,4.6154,4.8879,4.4075,1.1769,1.1876,1.23,1.1071,0.8431,0.7408,1.0967,0.8471,1.2426,1.2556,1.2785,1.1909,2.1344,2.1048,2.207,2.0021,1.9521,1.9202,2.0032,1.8269,0.2823,0.2791,0.2785,0.2564,1.4341,1.4644,1.4715,1.3845,1.2328,1.2106,1.2733,1.1807,29.5255,28.423,31.6104,28.2363,1.4249,1.429,1.488,1.3465,1.0378,1.2367,1.0909,1.1236,0.226,0.2316,0.2407,0.2214,0.8711,0.9029,0.8934,0.8445,1.4115,1.4312,1.4533,1.3613
"ILL_8595_AGL",1.2716,1.186,1.2818,1.1686,2.1874,2.1547,2.2019,2.1395,3.5642,3.3816,3.576,3.3116,0.2585,0.2638,0.2635,0.263,4.9287,4.6136,4.8997,4.5469,1.2357,1.1779,1.2383,1.1492,1.0026,0.8356,1.0947,0.8314,1.2847,1.2279,1.2769,1.211,2.2339,2.0746,2.2016,2.048,2.0026,1.8735,1.987,1.8634,0.2934,0.2779,0.2801,0.2775,1.4871,1.4299,1.4691,1.4109,1.2822,1.1956,1.2717,1.1941,31.1214,28.7278,31.7334,28.9956,1.4755,1.3825,1.4894,1.3649,1.0978,1.2584,1.0861,1.1944,0.238,0.2334,0.2478,0.2333,0.8931,0.8914,0.8907,0.8674,1.4663,1.4055,1.4533,1.3989
"ILL_9_AGL",1.1668,1.1049,1.0784,1.1157,2.0383,2.04,1.9081,2.1227,3.3547,3.1341,3.1142,3.0187,0.2566,0.263,0.2374,0.2439,4.5729,4.338,4.3867,4.3393,1.1216,1.0923,1.0789,1.0647,0.9535,0.8218,1.0283,0.9954,1.2013,1.1785,1.1661,1.1946,2.0552,1.9609,1.9748,1.9811,1.8533,1.7642,1.7876,1.7652,0.2782,0.2624,0.2405,0.2332,1.3784,1.3649,1.3244,1.3818,1.2136,1.1635,1.1745,1.1826,29.1724,27.414,28.717,28.283,1.3844,1.3286,1.3456,1.3601,0.9657,1.1358,0.9397,1.009,0.2175,0.2135,0.2103,0.2139,0.8395,0.8445,0.7967,0.8166,1.346,1.322,1.2885,1.3539
"ILL_975_AGL",1.108,1.072,1.1443,1.1083,1.8497,1.9112,2.1455,2.0842,3.1462,3.0319,3.4294,3.1154,0.2421,0.2613,0.2373,0.2595,4.4519,4.2115,4.8464,4.3976,1.072,1.0437,1.1455,1.0704,0.8099,0.7156,1.1127,0.8927,1.1846,1.1656,1.2625,1.2088,2.0107,1.9188,2.1529,1.9967,1.8417,1.7654,1.9351,1.8161,0.265,0.2551,0.2519,0.246,1.3601,1.3459,1.446,1.3985,1.1593,1.1117,1.2279,1.1496,27.4502,26.3947,30.943,28.0786,1.3654,1.3249,1.4695,1.3877,0.8888,1.0785,1.0089,1.0553,0.2053,0.2045,0.2225,0.215,0.8031,0.8261,0.8483,0.8345,1.3193,1.3069,1.4043,1.3733
"ILL_9888_AGL",1.2037,1.1546,1.2546,1.1707,2.2163,2.269,2.4169,2.3119,3.542,3.4144,3.7888,3.3317,0.2597,0.276,0.2741,0.2824,4.8951,4.7679,5.2702,4.7455,1.1744,1.1634,1.2591,1.1891,0.9752,0.8295,1.147,0.9211,1.2902,1.2986,1.3811,1.3274,2.1967,2.1457,2.3354,2.1812,2.0249,1.9352,2.0784,1.9232,0.2615,0.2634,0.2736,0.2487,1.4967,1.4984,1.5749,1.5286,1.2454,1.1864,1.288,1.2124,30.9797,29.6418,33.3087,30.2626,1.5181,1.48,1.5975,1.5326,1.095,1.2339,1.1341,1.1364,0.2336,0.2335,0.2494,0.2356,0.8814,0.8961,0.9312,0.8947,1.4626,1.4703,1.5464,1.5185
"ILL_9932_AGL",1.1103,1.1349,1.0798,1.1307,2.0411,2.24,1.954,2.2387,3.3328,3.3121,3.2226,3.2152,0.2458,0.2632,0.2451,0.2632,4.4995,4.5703,4.4391,4.4809,1.07,1.1238,1.0749,1.0936,1.0118,0.9542,0.9812,1.0731,1.1777,1.2192,1.1724,1.217,2.0168,2.0581,1.993,2.0438,1.8645,1.8342,1.7986,1.7861,0.2483,0.2523,0.2454,0.2411,1.3653,1.4303,1.343,1.4159,1.1877,1.1942,1.1656,1.2051,29.4,29.1598,28.6954,29.5271,1.3783,1.3963,1.351,1.3868,0.9769,1.1586,0.9497,1.0595,0.2162,0.2224,0.2099,0.2212,0.7992,0.865,0.7902,0.8395,1.3402,1.3907,1.3085,1.3873
"ILL_9945_AGL",1.2268,1.1923,1.1945,1.221,2.3931,2.5364,2.2841,2.5273,3.7656,3.5528,3.6633,3.5519,0.2673,0.2762,0.2642,0.2766,5.1568,4.9684,5.0563,5.0114,1.2204,1.1662,1.1955,1.2073,1.167,1.0618,1.0709,1.1363,1.3391,1.3271,1.3266,1.3544,2.2877,2.2211,2.2524,2.2697,2.0469,1.9574,1.9969,1.9774,0.2681,0.2473,0.2623,0.2555,1.5479,1.5559,1.5179,1.5705,1.2972,1.2405,1.2593,1.2853,32.5257,31.3735,31.7773,32.389,1.5675,1.5212,1.5242,1.5553,1.0934,1.2119,1.0842,1.1631,0.2364,0.233,0.2337,0.2412,0.9105,0.9327,0.8839,0.9262,1.4986,1.5062,1.4788,1.5496
"ILL_9977_AGL",1.1363,1.1264,1.082,1.1408,2.0811,2.2568,1.9631,2.1767,3.3573,3.256,3.1731,3.1411,0.247,0.2608,0.2368,0.2549,4.6186,4.546,4.4565,4.4463,1.1176,1.0937,1.0713,1.0862,1.048,1.0553,1.0614,1.0049,1.2121,1.2141,1.1684,1.1968,2.0731,2.041,1.9958,2.0245,1.9136,1.8213,1.8111,1.8048,0.2485,0.2338,0.2388,0.2409,1.4081,1.4242,1.3516,1.4072,1.1952,1.175,1.1655,1.1835,29.816,29.262,29.0106,28.914,1.4251,1.3931,1.3538,1.3712,1.0321,1.1207,0.9635,1.0631,0.2187,0.2188,0.209,0.2187,0.8317,0.846,0.7749,0.8265,1.3786,1.3785,1.3043,1.3767
"ILL_9997_AGL",1.1243,1.1081,1.1071,1.1617,2.0271,2.0879,2.0104,2.2234,3.3206,3.1606,3.2359,3.1763,0.2354,0.2557,0.2402,0.2581,4.554,4.3725,4.5246,4.4099,1.1094,1.0922,1.1037,1.1233,1.1267,0.9905,1.0903,1.1337,1.1894,1.1858,1.1953,1.2168,2.0487,1.9824,2.0391,2.0386,1.8657,1.7858,1.8399,1.7992,0.256,0.2438,0.242,0.2374,1.3805,1.3809,1.3732,1.4133,1.1982,1.1467,1.1994,1.2116,29.4538,28.0629,29.5806,29.6198,1.3887,1.3554,1.3879,1.3976,0.9859,1.1378,0.9944,1.0718,0.2158,0.2164,0.213,0.2247,0.8104,0.8177,0.7901,0.8145,1.3424,1.3413,1.3264,1.3931
"ILWL_118_AGL",1.0804,1.0336,1.0973,1.0754,1.8355,1.8132,1.9622,2.0155,3.1415,2.9366,3.2119,2.9949,0.2359,0.2533,0.2346,0.2345,4.2796,4.0496,4.5072,4.2424,1.0427,1.0161,1.0817,1.0435,0.9354,0.786,1.1498,1.1187,1.1372,1.1204,1.1858,1.1504,1.9462,1.8499,2.0261,1.9358,1.8057,1.6999,1.8306,1.7462,0.2547,0.2544,0.2484,0.2354,1.3155,1.2985,1.3595,1.337,1.1613,1.0925,1.199,1.1598,27.7788,25.6012,29.6497,28.3641,1.3109,1.2524,1.3629,1.3037,0.9738,1.0889,0.9839,1.04,0.204,0.1974,0.2107,0.2091,0.7758,0.79,0.8006,0.7923,1.2704,1.2433,1.3077,1.3028
"Indianhead_AGL",1.2865,1.2354,1.268,1.203,2.3202,2.3021,2.2193,2.2638,3.7998,3.5402,3.6375,3.4268,0.2619,0.2637,0.2631,0.2761,5.1587,4.828,4.9718,4.7135,1.2581,1.2213,1.2298,1.1807,0.955,0.8822,1.0155,0.7873,1.3633,1.2868,1.3153,1.2768,2.3483,2.1997,2.2438,2.1895,2.137,1.9382,2.0342,1.9294,0.2921,0.2725,0.2816,0.2679,1.569,1.5019,1.501,1.4921,1.2674,1.205,1.2209,1.2182,32.6011,30.1257,31.8375,30.4296,1.6034,1.4957,1.5428,1.4921,1.1915,1.2309,1.161,1.1701,0.247,0.2398,0.2397,0.2353,0.9282,0.9214,0.9075,0.9125,1.5886,1.4909,1.5052,1.4846
"IPL_220_AGL",1.1508,1.1755,1.1101,1.1309,2.0164,2.4323,1.9895,2.2413,3.3666,3.5181,3.2692,3.2389,0.2467,0.2685,0.2395,0.2578,4.6024,4.8538,4.5636,4.5508,1.1156,1.1742,1.1141,1.1141,1.0305,1.1297,1.0876,1.1181,1.1925,1.2814,1.1957,1.2192,2.065,2.1683,2.0459,2.0571,1.8925,1.9241,1.8717,1.8356,0.2719,0.2522,0.2381,0.2366,1.3877,1.5126,1.3835,1.4284,1.1947,1.2252,1.1703,1.1945,29.6041,30.6614,29.2939,29.8295,1.3936,1.4741,1.3997,1.4042,1.0018,1.2262,0.9947,1.0799,0.2149,0.2293,0.217,0.2244,0.8109,0.9014,0.8075,0.8417,1.3483,1.4614,1.3424,1.4002
"Laird_AGL",1.2375,1.1615,1.2232,1.1509,2.141,2.0744,2.0574,2.106,3.4616,3.1162,3.3576,3.0696,0.259,0.2608,0.251,0.2629,4.871,4.3639,4.7139,4.3985,1.2112,1.1075,1.1645,1.106,0.9338,0.7493,1.0665,0.8769,1.2813,1.201,1.2532,1.2263,2.2085,1.995,2.1326,2.0233,2.0096,1.805,1.9389,1.8171,0.2831,0.256,0.2578,0.2432,1.4877,1.4017,1.432,1.4137,1.2566,1.1806,1.2337,1.194,30.4747,27.2068,30.5497,28.4964,1.4796,1.3553,1.4423,1.3895,1.0864,1.181,1.0189,1.0657,0.235,0.219,0.2316,0.2211,0.8872,0.8582,0.8685,0.8564,1.4614,1.3589,1.4066,1.4004
"LIRL.22.46_AGL",1.1845,1.1863,1.1571,1.1646,2.0155,2.3085,2.0377,2.1764,3.3984,3.391,3.315,3.1826,0.2673,0.2675,0.2437,0.2588,4.588,4.6372,4.592,4.4259,1.1551,1.1627,1.132,1.1215,1.0015,1.0564,1.0848,1.098,1.2085,1.2504,1.2078,1.2102,2.0767,2.0967,2.0715,2.0322,1.9058,1.8647,1.8833,1.8277,0.2803,0.2642,0.2608,0.2468,1.3981,1.4635,1.3896,1.4071,1.2044,1.2369,1.2303,1.2106,29.5427,29.8994,30.0911,29.6213,1.405,1.4136,1.3898,1.382,1.0423,1.2214,1.0057,1.0885,0.224,0.2288,0.2229,0.2253,0.8392,0.8876,0.8281,0.8452,1.3691,1.423,1.3591,1.3902
"PI_163589_AGL",1.2002,1.1043,1.1126,1.1723,2.1673,2.1676,2.0558,2.2971,3.4629,3.1569,3.2074,3.2305,0.2466,0.2528,0.2277,0.2621,4.8312,4.4973,4.6124,4.6584,1.1645,1.0956,1.1081,1.1493,0.9776,0.8692,1.0859,0.9938,1.2507,1.2193,1.2078,1.2757,2.1629,2.0199,2.0736,2.1256,1.976,1.8292,1.8741,1.8836,0.2718,0.2427,0.2358,0.2479,1.4595,1.4206,1.3958,1.4805,1.2654,1.1778,1.2347,1.2492,30.5833,28.3888,30.1507,30.2148,1.4582,1.3796,1.3998,1.452,1.0532,1.1612,0.983,1.0966,0.2298,0.2161,0.2184,0.2305,0.8529,0.8331,0.8029,0.8453,1.4192,1.3737,1.3512,1.4616
"PI_169534_LSP_AGL",1.2771,1.1108,1.0909,1.1255,2.1687,2.1433,1.9194,2.2446,3.5653,3.1919,3.1767,3.2288,0.2617,0.2725,0.2491,0.2811,4.8303,4.4418,4.4347,4.5251,1.2029,1.0886,1.0908,1.1111,1.0415,0.7547,0.9311,0.897,1.2637,1.198,1.1689,1.2196,2.1796,2.0105,2.0029,2.0532,2.0036,1.8033,1.8494,1.8128,0.2859,0.2466,0.2451,0.2449,1.4723,1.4137,1.3559,1.4283,1.2534,1.1505,1.1474,1.1784,30.7379,27.7911,28.3744,29.2,1.4814,1.3656,1.371,1.404,1.0747,1.1716,0.9833,1.133,0.2355,0.2177,0.2144,0.2283,0.8858,0.8527,0.8068,0.8733,1.4532,1.3695,1.3296,1.403
"PI_175754_LSP_AGL",1.2737,1.1946,1.312,1.227,2.2832,2.2941,2.3901,2.3997,3.6125,3.4364,3.7558,3.4356,0.2761,0.2847,0.2784,0.2848,4.9121,4.7082,5.1007,4.8198,1.2077,1.1436,1.27,1.2004,1.0444,0.7857,1.3069,1.0487,1.2906,1.2566,1.3373,1.2976,2.2159,2.1208,2.2922,2.2016,2.0303,1.8956,2.0596,1.9257,0.2631,0.2595,0.2618,0.2593,1.4983,1.4748,1.5372,1.5109,1.283,1.2121,1.3098,1.2742,31.5721,29.1989,33.4058,31.4198,1.5169,1.4372,1.5737,1.4976,1.0906,1.2127,1.0974,1.1674,0.2413,0.2284,0.2537,0.2403,0.8819,0.8786,0.9207,0.9032,1.4759,1.4404,1.5223,1.4978
"PI_177430_LSP_AGL",1.1757,1.1231,1.2217,1.0769,2.0434,2.139,2.1617,2.0274,3.4188,3.2748,3.5184,3.0145,0.2532,0.2741,0.2506,0.26,4.6464,4.4543,4.8173,4.1873,1.1318,1.1078,1.1893,1.0535,0.9972,0.8597,1.1888,0.9682,1.2111,1.1828,1.2569,1.131,2.0924,2.0122,2.1683,1.9299,1.935,1.7941,1.9717,1.7258,0.2691,0.2631,0.2571,0.2428,1.4024,1.3937,1.4517,1.3294,1.2138,1.1741,1.248,1.1571,29.5887,28.119,31.1139,27.9471,1.4173,1.3515,1.4758,1.3059,1.0064,1.1813,1.0175,1.0527,0.225,0.2216,0.2357,0.215,0.845,0.8543,0.8692,0.8073,1.3841,1.3502,1.4343,1.3013
"PI_178939_LSP_AGL",1.2137,1.1352,1.1267,1.1146,2.0283,2.0971,1.9029,2.0918,3.4204,3.2604,3.2103,3.1485,0.264,0.2844,0.2481,0.284,4.6781,4.4645,4.4781,4.3722,1.1685,1.1198,1.1098,1.1229,0.9621,0.7133,0.9493,0.8487,1.2414,1.233,1.1841,1.2111,2.1287,2.0309,2.0247,2.0075,1.9835,1.8608,1.8785,1.81,0.2758,0.2677,0.2494,0.2558,1.438,1.4342,1.3718,1.4008,1.2177,1.1507,1.1643,1.1626,29.8522,27.733,28.6801,28.4794,1.4515,1.4078,1.3984,1.3992,1.0746,1.2045,1.0116,1.1039,0.2293,0.2191,0.2153,0.2244,0.8728,0.8748,0.8087,0.8569,1.4135,1.3965,1.3294,1.3814
"PI_178952_AGL",1.3089,1.2446,1.2167,1.1371,2.2757,2.4542,2.1345,2.0997,3.718,3.6462,3.5311,3.2608,0.2856,0.3009,0.2625,0.2788,4.9502,4.9468,4.7676,4.4469,1.2397,1.22,1.1906,1.1259,1.1134,0.8569,1.1565,0.9045,1.2967,1.3191,1.2497,1.2273,2.2418,2.2303,2.1478,2.0456,2.0339,1.988,1.9483,1.8527,0.2972,0.2764,0.257,0.2598,1.5054,1.5501,1.4368,1.4106,1.262,1.2468,1.2254,1.1815,32.0143,30.7688,30.8316,29.2149,1.5321,1.5292,1.4729,1.4151,1.0964,1.2979,1.0335,1.127,0.2479,0.2427,0.2372,0.2275,0.9045,0.945,0.8633,0.8348,1.4893,1.5175,1.4187,1.4036
"PI_178971_LSP_AGL",1.1871,1.1924,1.1643,1.1554,2.0832,2.264,2.0082,2.1066,3.528,3.5074,3.4301,3.2939,0.2686,0.2956,0.2664,0.279,4.6693,4.6882,4.6024,4.4821,1.1365,1.1621,1.1354,1.1171,1.0158,0.874,0.9223,0.8511,1.2048,1.2671,1.2162,1.2239,2.0947,2.1073,2.0757,2.0366,1.9258,1.9299,1.91,1.8578,0.2867,0.2763,0.2666,0.2676,1.3981,1.46,1.3922,1.4105,1.2298,1.2002,1.203,1.176,30.0822,29.9789,29.4871,28.7322,1.4212,1.4636,1.4247,1.3998,1.0186,1.2495,1.0317,1.1564,0.2265,0.2341,0.2266,0.2256,0.8266,0.905,0.8283,0.8492,1.3599,1.4419,1.3664,1.3927
"PI_179324_LSP_AGL",1.1307,1.122,1.1223,1.1409,1.9827,2.1784,1.9951,2.1981,3.3454,3.2892,3.3392,3.2237,0.2624,0.2741,0.251,0.2707,4.5141,4.4964,4.583,4.5035,1.1137,1.104,1.1034,1.1087,0.9337,0.8819,0.9913,0.9737,1.1953,1.2228,1.2148,1.2411,2.043,2.0379,2.0614,2.0595,1.8704,1.831,1.8776,1.8303,0.2782,0.2628,0.2572,0.2537,1.38,1.4191,1.3827,1.4256,1.1851,1.1789,1.1914,1.1989,28.711,28.6008,29.3664,29.4059,1.4017,1.3932,1.3997,1.4216,0.9875,1.1468,0.9731,1.0616,0.2151,0.2188,0.2165,0.2224,0.8355,0.8819,0.8338,0.8722,1.3451,1.3834,1.359,1.4121
"PI_179330_AGL",1.2918,1.1564,1.1612,1.0459,2.3041,2.1394,2.0591,1.7209,3.8288,3.3749,3.4948,2.7578,0.294,0.2928,0.2696,0.2769,5.0467,4.4794,4.6615,3.7322,1.263,1.1508,1.1652,1.0034,1.0743,0.7542,1.0238,0.7314,1.3272,1.2223,1.2387,1.0799,2.2634,2.0595,2.1005,1.7802,2.0615,1.8521,1.9041,1.622,0.3043,0.2916,0.2717,0.2482,1.5244,1.4243,1.4129,1.2423,1.2613,1.1906,1.2106,1.075,32.223,28.5252,29.9791,25.0771,1.5709,1.4083,1.446,1.2479,1.147,1.2344,1.0507,0.9846,0.2446,0.2291,0.2297,0.2046,0.9386,0.9234,0.8755,0.7926,1.5064,1.3886,1.3827,1.2231
"PI_181771_LSP_AGL",1.2634,1.2102,1.1919,1.1596,2.1862,2.2568,2.1556,2.1394,3.6531,3.5375,3.5732,3.2806,0.2793,0.2989,0.2563,0.2742,4.7679,4.7269,4.7866,4.485,1.1878,1.1767,1.1649,1.1086,1.0358,0.8347,0.9679,0.9121,1.2438,1.283,1.2516,1.2238,2.1608,2.1294,2.1523,2.0384,1.9859,1.9437,1.9572,1.8645,0.2867,0.2823,0.2715,0.2606,1.4458,1.4759,1.4333,1.4127,1.2713,1.2066,1.2495,1.1762,30.9462,29.7727,30.5457,29.207,1.4748,1.4733,1.447,1.4039,1.074,1.2364,1.08,1.1551,0.2403,0.2365,0.2313,0.2269,0.8659,0.9046,0.8528,0.8436,1.4183,1.4581,1.4199,1.403
"PI_181886_LSP_AGL",1.1339,1.0999,1.1047,1.0989,1.9186,2.0769,1.9063,2.0279,3.1897,3.1251,3.1377,3.0795,0.235,0.259,0.2345,0.2549,4.5097,4.3752,4.4809,4.3595,1.0857,1.0874,1.0713,1.0752,0.8973,0.7827,0.9204,0.8363,1.1741,1.1796,1.1753,1.1763,2.0184,1.9709,2.0021,1.9722,1.876,1.7943,1.8267,1.7732,0.2596,0.2565,0.2475,0.2559,1.3629,1.3799,1.3498,1.3739,1.2083,1.1646,1.199,1.1717,28.6939,27.6807,28.6601,27.5326,1.3537,1.3357,1.3415,1.3238,0.9866,1.142,0.9355,1.0526,0.2132,0.2164,0.2108,0.2171,0.8158,0.837,0.7936,0.8177,1.3125,1.3357,1.3012,1.3368
"PI_182217_LSP_AGL",1.3653,1.2184,1.3496,1.0835,2.4067,2.2699,2.4055,1.9994,3.8885,3.5333,3.9383,3.0206,0.2985,0.2868,0.2939,0.2531,5.0687,4.7527,5.1916,4.2972,1.2636,1.1636,1.2795,1.0645,1.2078,0.9335,1.184,0.8597,1.3281,1.2513,1.3509,1.1664,2.316,2.1288,2.3333,1.9471,2.087,1.936,2.0945,1.7593,0.29,0.2818,0.2872,0.2496,1.5376,1.4576,1.546,1.3526,1.3451,1.2131,1.3244,1.1651,33.5174,30.0771,33.4746,27.4597,1.5784,1.4427,1.5938,1.3128,1.0947,1.2212,1.1473,1.0297,0.265,0.2407,0.2622,0.2139,0.9256,0.8963,0.9497,0.8035,1.5312,1.4455,1.5407,1.3254
"PI_193546_AGL",1.2243,1.1816,1.1469,1.1462,2.3088,2.4032,2.0828,2.2591,3.6268,3.5658,3.3807,3.2689,0.2557,0.2807,0.239,0.251,4.98,4.8925,4.7185,4.631,1.184,1.1679,1.1252,1.1129,1.1637,0.8865,1.0474,1.0603,1.3002,1.3004,1.2448,1.2447,2.2198,2.1808,2.1166,2.1009,2.0082,1.9206,1.9129,1.8314,0.2554,0.2623,0.239,0.2427,1.5008,1.5146,1.4268,1.4516,1.2743,1.243,1.2212,1.2267,31.9168,30.2885,30.0408,29.6139,1.5188,1.4796,1.4337,1.4088,1.0534,1.2314,1.0284,1.0814,0.2349,0.2319,0.2195,0.2208,0.8812,0.9201,0.8276,0.8412,1.4734,1.4704,1.3904,1.4149
"PI_193547_LSP_AGL",1.2118,1.157,1.1257,1.0628,2.2121,2.1992,1.8842,1.8566,3.6197,3.4016,3.2399,3.0521,0.2786,0.2998,0.2508,0.2629,4.7361,4.5362,4.4228,4.0904,1.1772,1.1291,1.0965,1.0173,1.069,0.7042,0.9245,0.7736,1.2386,1.2187,1.1696,1.1039,2.139,2.0606,2.0008,1.8774,1.9719,1.8744,1.8607,1.7302,0.2692,0.2753,0.2559,0.2534,1.4379,1.4321,1.3442,1.2785,1.2281,1.1688,1.1441,1.1014,30.6016,28.3597,28.1734,26.9263,1.4898,1.4151,1.3724,1.2598,1.0254,1.2534,0.9788,1.0696,0.2393,0.2287,0.2191,0.2155,0.8513,0.8739,0.7958,0.7459,1.4277,1.4061,1.332,1.2768
"PI_193548_LSP_AGL",1.2424,1.1732,1.2481,1.1403,2.2625,2.28,2.3266,2.1798,3.7573,3.4492,3.788,3.2743,0.2576,0.2682,0.2597,0.2543,5.0178,4.7399,5.1421,4.5377,1.2151,1.1585,1.2362,1.1141,1.0552,0.8073,1.0974,0.8853,1.2928,1.2592,1.3375,1.2021,2.2289,2.1345,2.2862,2.0619,2.0218,1.8909,2.0432,1.8155,0.2872,0.268,0.2726,0.262,1.4872,1.4668,1.5166,1.4013,1.2476,1.1974,1.27,1.1937,31.5399,29.5165,32.6201,29.1689,1.5209,1.4508,1.5496,1.3882,1.0582,1.2277,1.0934,1.0958,0.2438,0.2339,0.2474,0.2315,0.8818,0.8894,0.8984,0.8425,1.4845,1.4517,1.5302,1.3966
"PI_193550_AGL",1.2417,1.1703,1.2819,1.2365,2.2396,2.2945,2.4,2.4747,3.6749,3.4792,3.8736,3.6088,0.2514,0.2651,0.2647,0.2687,4.9351,4.7299,5.2055,4.9765,1.2082,1.1678,1.2624,1.1941,1.0749,0.7455,1.2134,0.9855,1.2745,1.2561,1.3515,1.307,2.2076,2.1519,2.3165,2.2373,1.9995,1.888,2.0702,1.9649,0.2805,0.2721,0.277,0.2745,1.4693,1.4741,1.5397,1.5279,1.2481,1.1989,1.2822,1.2616,31.3385,29.5989,33.2659,31.6975,1.5025,1.4609,1.5885,1.5104,1.0618,1.2541,1.1131,1.1872,0.2417,0.2357,0.254,0.2456,0.8703,0.8914,0.9094,0.9174,1.4713,1.4564,1.5524,1.5278
"PI_207492_LSP_AGL",1.2302,1.1742,1.2071,1.1736,2.1356,2.1359,2.0724,2.1933,3.5893,3.4461,3.5885,3.3929,0.2792,0.2934,0.2679,0.2822,4.6722,4.5349,4.7258,4.5606,1.1679,1.136,1.1806,1.1185,0.9695,0.7107,0.8898,0.8679,1.2271,1.2275,1.2231,1.2205,2.1263,2.0423,2.1229,2.0607,1.9698,1.8805,1.9507,1.8943,0.2787,0.2801,0.2905,0.2753,1.4271,1.4224,1.3982,1.4189,1.2495,1.1701,1.2244,1.1904,30.4152,28.2565,29.8787,29.7253,1.4611,1.4058,1.4362,1.4084,1.0805,1.2364,1.0622,1.2046,0.2341,0.2258,0.2321,0.2315,0.8496,0.8566,0.8694,0.8555,1.399,1.3928,1.3954,1.4011
"PI_209858_LSP_AGL",1.2411,1.1123,1.273,1.1826,2.2325,2.2226,2.379,2.4607,3.595,3.2351,3.6097,3.3716,0.2679,0.2586,0.2468,0.2555,4.9043,4.594,5.0577,4.8098,1.1986,1.1254,1.2388,1.1642,1.1078,1.025,1.3965,1.2459,1.2804,1.2366,1.3216,1.2799,2.2075,2.0592,2.2785,2.1564,2.0026,1.8556,2.0269,1.9056,0.2841,0.2415,0.2466,0.2409,1.4798,1.4419,1.5274,1.5006,1.2652,1.1712,1.3257,1.2457,31.4096,29.0151,33.2655,31.5333,1.498,1.4244,1.5576,1.4831,1.0626,1.1765,1.0704,1.1444,0.2345,0.2208,0.2431,0.2334,0.8832,0.8604,0.8994,0.8863,1.4524,1.3935,1.4893,1.4635
"PI_211052_LSP_AGL",1.1596,1.155,1.1583,1.2164,2.0215,2.1751,2.0324,2.3002,3.4439,3.4251,3.4579,3.4842,0.252,0.266,0.2532,0.2725,4.6071,4.5749,4.6583,4.6663,1.1139,1.0992,1.1177,1.1356,0.9807,0.7912,1.0054,1.0724,1.1863,1.2001,1.206,1.2376,2.0542,2.0533,2.0721,2.1011,1.911,1.8644,1.9039,1.9058,0.2794,0.2684,0.266,0.2628,1.3744,1.4086,1.3813,1.4398,1.1695,1.1593,1.1702,1.2075,29.1982,28.4633,29.6138,30.4828,1.4129,1.384,1.4173,1.438,1.0234,1.1993,0.991,1.1447,0.2231,0.2217,0.2261,0.2343,0.8289,0.8525,0.8277,0.8653,1.3626,1.3865,1.3773,1.4355
"PI_212100_LSP_AGL",1.1345,1.1324,1.2039,1.1261,1.9025,2.0173,2.1213,2.115,3.3104,3.2945,3.4963,3.262,0.2576,0.282,0.2651,0.2775,4.4185,4.4098,4.7716,4.4652,1.0902,1.0808,1.1616,1.0865,0.8813,0.6189,1.0851,0.8659,1.1539,1.1853,1.2398,1.1981,1.9912,1.9942,2.1293,2.0232,1.8892,1.8192,1.9399,1.8382,0.2679,0.2648,0.2599,0.2571,1.3352,1.3836,1.4224,1.3937,1.1624,1.1254,1.2197,1.1581,28.318,26.7318,30.7247,28.9577,1.3816,1.3436,1.4529,1.3786,0.9646,1.1821,1.0273,1.1333,0.2173,0.2145,0.2311,0.2256,0.7917,0.8257,0.8386,0.8239,1.3209,1.3491,1.3993,1.3817
"PI_212610_LSP_AGL",1.1865,1.0854,1.2066,1.142,2.0349,1.8779,2.0543,2.0814,3.4387,3.1726,3.4874,3.2641,0.2655,0.2742,0.2635,0.2766,4.6203,4.2919,4.7065,4.4528,1.1301,1.0515,1.1513,1.12,0.8849,0.5668,0.9908,0.8982,1.2169,1.1802,1.2295,1.2215,2.0832,1.9367,2.1074,2.0437,1.9462,1.795,1.9318,1.87,0.2737,0.2683,0.2778,0.2674,1.4082,1.3552,1.4066,1.4055,1.205,1.1001,1.2099,1.1721,29.3789,25.7825,30.2838,29.2869,1.4352,1.3067,1.4292,1.4093,1.0383,1.1517,1.0699,1.1351,0.2263,0.2044,0.2319,0.2296,0.8351,0.8117,0.8489,0.8463,1.3838,1.3242,1.3866,1.4109
"PI_217949_LSP_AGL",1.1227,1.0918,1.122,1.1179,2.0313,2.1931,2.0201,2.2031,3.3502,3.2263,3.4131,3.19,0.2281,0.235,0.2211,0.2332,4.5833,4.4662,4.591,4.3974,1.1066,1.0832,1.1181,1.0659,1.1117,1.0254,1.0901,1.1627,1.1876,1.1816,1.1895,1.169,2.0566,2.0143,2.0692,1.9984,1.8687,1.7775,1.8616,1.7694,0.254,0.2399,0.2546,0.2369,1.3778,1.4009,1.3725,1.3793,1.1964,1.151,1.1976,1.1883,29.5865,28.292,28.9551,29.2429,1.3848,1.3518,1.3744,1.3423,0.9588,1.1456,0.936,1.0554,0.2166,0.2141,0.2134,0.2165,0.7924,0.8285,0.7972,0.8028,1.3481,1.3536,1.3522,1.3461
"PI_238758_LSP_AGL",1.4964,1.2083,1.2227,1.1929,2.0967,2.3308,2.1253,2.3127,3.6527,3.4522,3.4308,3.3988,0.3028,0.2755,0.2512,0.2659,4.7438,4.8756,4.8965,4.8274,1.2892,1.2002,1.1909,1.1916,0.9681,0.817,0.9373,0.913,1.3656,1.298,1.284,1.288,2.2922,2.1782,2.1936,2.165,2.0362,1.9522,1.9887,1.9518,0.2701,0.273,0.2622,0.2687,1.5581,1.516,1.4689,1.4977,1.3385,1.2363,1.2535,1.2397,31.6631,29.9286,31.0249,30.7624,1.5725,1.4675,1.4755,1.4634,1.0406,1.2623,1.0866,1.2011,0.2607,0.2383,0.2391,0.2387,0.8553,0.9175,0.8752,0.9104,1.5182,1.4825,1.4462,1.483
"PI_244046_AGL",1.29,1.1952,1.3641,1.3429,2.3951,2.3034,2.6575,2.7752,3.7822,3.5278,4.1108,3.9189,0.2741,0.2874,0.2908,0.3044,5.0688,4.7266,5.4737,5.3388,1.2088,1.1458,1.3106,1.2651,1.1672,0.755,1.3477,1.1777,1.3057,1.2694,1.4239,1.4155,2.2605,2.1392,2.4325,2.3969,2.0354,1.9109,2.1663,2.0899,0.2977,0.2719,0.278,0.2783,1.5186,1.4756,1.6309,1.65,1.2891,1.1962,1.3507,1.3386,32.6947,29.6708,35.1841,34.2355,1.5369,1.4638,1.6704,1.639,1.1034,1.224,1.1501,1.2171,0.2395,0.2351,0.2634,0.2616,0.9088,0.9002,0.9783,0.9944,1.4956,1.4645,1.6323,1.6444
"PI_250156_LSP_AGL",1.0981,1.0459,1.1139,1.0995,1.9121,1.9632,1.9351,2.0634,3.2431,2.9683,3.2719,3.0763,0.2452,0.2735,0.2409,0.2548,4.4761,4.1147,4.5632,4.2771,1.0726,1.0609,1.1097,1.0465,0.8548,0.7907,0.9703,0.9356,1.1618,1.1362,1.1965,1.1562,2.0036,1.9206,2.0453,1.9455,1.8585,1.6994,1.8805,1.7651,0.2628,0.2333,0.2489,0.2424,1.3513,1.3312,1.3748,1.356,1.1617,1.1206,1.1618,1.1392,28.4751,27.1551,29.0411,27.9417,1.36,1.3198,1.394,1.3263,0.9811,1.0586,0.9992,1.0505,0.2097,0.2154,0.2176,0.2127,0.7822,0.7793,0.7985,0.798,1.3094,1.3045,1.3522,1.328
"PI_250158_LSP_AGL",1.0767,1.0615,1.0682,1.081,1.8807,2.0268,1.8761,2.1111,3.1462,3.0631,3.1137,3.0427,0.2287,0.2505,0.2275,0.2342,4.3199,4.219,4.3335,4.2033,1.0491,1.0485,1.0563,1.0214,1.1132,0.8943,1.0962,1.1972,1.1254,1.1352,1.1375,1.1264,1.9516,1.9159,1.9493,1.9162,1.7761,1.7312,1.7703,1.7146,0.2493,0.2363,0.2413,0.2279,1.3034,1.3344,1.3057,1.3254,1.158,1.1103,1.1415,1.16,28.3622,27.2671,28.3155,28.533,1.305,1.2993,1.3096,1.2944,0.9223,1.1421,0.9292,1.0103,0.2022,0.2091,0.2087,0.2101,0.7544,0.7949,0.7652,0.7811,1.2639,1.295,1.2757,1.2917
"PI_251248_LSP_AGL",1.3032,1.2437,1.3192,1.3573,2.3627,2.3777,2.4347,2.8774,3.8375,3.6711,3.8558,4.0822,0.2841,0.2944,0.2821,0.318,4.9735,4.8678,5.1391,5.4484,1.2185,1.2021,1.271,1.3178,1.2359,0.8975,1.2902,1.2358,1.283,1.2985,1.3419,1.4302,2.2334,2.1832,2.2922,2.4382,2.0122,1.9747,2.0419,2.0974,0.2978,0.2775,0.2702,0.2893,1.4883,1.5107,1.5365,1.6726,1.2929,1.2039,1.2936,1.3622,32.7394,30.3615,33.2674,35.0967,1.5269,1.4974,1.5844,1.6803,1.0567,1.2762,1.0534,1.2433,0.2473,0.2419,0.2574,0.2676,0.8913,0.9179,0.9137,1.0204,1.4732,1.5015,1.5264,1.6633
"PI_273664_LSP_AGL",1.1169,1.1688,1.1182,1.1336,1.877,2.1748,1.9055,2.109,3.2069,3.3115,3.2584,3.1632,0.2543,0.2803,0.2471,0.2771,4.4754,4.5911,4.5362,4.4615,1.0788,1.137,1.102,1.1081,0.7848,0.6189,0.8485,0.7777,1.1746,1.2378,1.1954,1.2111,2.0171,2.0818,2.0397,2.0441,1.8755,1.8938,1.8948,1.831,0.26,0.2534,0.2496,0.2439,1.3576,1.4544,1.3775,1.4135,1.1581,1.1715,1.1463,1.1728,28.3373,28.2815,28.3812,28.6149,1.3682,1.4257,1.3954,1.3983,1.0089,1.2691,1.0219,1.1305,0.2113,0.225,0.2166,0.2257,0.7856,0.864,0.7906,0.8306,1.3192,1.4138,1.3499,1.3886
"PI_280686_AGL",1.1921,1.1857,1.1932,1.1791,2.1121,2.2277,2.2195,2.1535,3.4612,3.4372,3.554,3.2315,0.2716,0.2902,0.2661,0.2826,4.5947,4.5683,4.8275,4.4019,1.1117,1.1527,1.1629,1.1147,1.0345,0.7392,1.1916,0.9173,1.1987,1.2261,1.239,1.2087,2.0711,2.0852,2.1344,2.0422,1.9117,1.8625,1.9262,1.8105,0.2769,0.2709,0.2694,0.2568,1.4053,1.4493,1.4364,1.4148,1.2048,1.1813,1.2246,1.1953,29.958,28.6187,31.1002,28.7478,1.4178,1.4138,1.4578,1.3895,0.9756,1.2467,1.0069,1.0627,0.2242,0.2306,0.2347,0.2263,0.8189,0.8886,0.8642,0.8459,1.3699,1.4128,1.4031,1.3972
"PI_283604_LSP_AGL",1.2453,1.1515,1.2121,1.2204,2.2981,2.257,2.3617,2.4156,3.6503,3.2819,3.6038,3.3104,0.2529,0.2504,0.2481,0.2545,5.1178,4.6477,5.085,4.7933,1.2322,1.1266,1.2078,1.1621,0.9814,0.91,1.2016,1.0301,1.3061,1.232,1.3037,1.2869,2.2774,2.0754,2.2456,2.1635,2.0441,1.8531,1.987,1.9162,0.2998,0.2628,0.2599,0.2568,1.5181,1.4407,1.5045,1.5019,1.3144,1.2183,1.3135,1.2822,31.9885,28.9776,32.6666,30.6919,1.505,1.3896,1.5113,1.4698,1.1377,1.1874,1.0746,1.1028,0.237,0.2209,0.2401,0.2335,0.9006,0.8715,0.8909,0.8927,1.4831,1.4007,1.4635,1.4861
"PI_289066_AGL",1.2233,1.169,1.2712,1.1375,2.1753,2.3166,2.3147,2.2237,3.5396,3.3568,3.5941,3.2628,0.2629,0.2599,0.2439,0.2619,4.868,4.7054,4.9984,4.5673,1.1981,1.1655,1.2178,1.1426,1.0947,1.0709,1.3701,1.0863,1.279,1.2588,1.3015,1.2336,2.1867,2.1118,2.2378,2.067,1.9952,1.8894,1.9873,1.8439,0.2819,0.2497,0.246,0.2524,1.4687,1.4712,1.4946,1.4313,1.2445,1.2088,1.3068,1.1986,31.2958,29.9586,32.9697,29.6743,1.5017,1.4579,1.5263,1.4269,1.0683,1.2248,1.046,1.1148,0.2302,0.2288,0.2398,0.2272,0.8893,0.8855,0.8798,0.8603,1.4438,1.425,1.46,1.4036
"PI_289073_LSP_AGL",1.1983,1.1261,1.1194,1.1482,2.1636,2.1328,2.0374,2.1877,3.4639,3.2244,3.2375,3.2109,0.2411,0.2524,0.2406,0.2622,4.8066,4.5023,4.568,4.5628,1.1693,1.1256,1.1128,1.124,1.0162,0.827,1.0286,0.8566,1.2638,1.2275,1.2152,1.2497,2.1668,2.0403,2.0427,2.0819,1.9534,1.828,1.8699,1.8519,0.2724,0.2452,0.235,0.2464,1.4608,1.4271,1.3914,1.4466,1.2338,1.1456,1.1696,1.1767,30.7357,27.9602,29.4525,29.1861,1.4792,1.3954,1.4204,1.4342,1.0334,1.1523,0.9839,1.1138,0.224,0.216,0.2172,0.2236,0.8468,0.8363,0.8026,0.8503,1.4395,1.3991,1.3712,1.4336
"PI_289079_LSP_AGL",1.2064,1.1387,1.1243,1.1191,2.1169,2.1516,2.0012,2.0982,3.4858,3.1923,3.2415,3.0946,0.2426,0.2434,0.231,0.2434,4.8462,4.5209,4.5957,4.4438,1.1865,1.1105,1.1096,1.0843,1.0474,0.8982,1.0197,0.9473,1.2592,1.2177,1.2,1.2021,2.1694,2.0364,2.0424,2.0084,1.9738,1.8468,1.8668,1.8209,0.2795,0.2458,0.2499,0.2365,1.4517,1.4219,1.3817,1.3946,1.2349,1.1629,1.166,1.1585,30.8627,28.4575,29.4604,28.6531,1.4717,1.3874,1.3968,1.3648,1.0306,1.152,0.9875,1.0562,0.2284,0.2193,0.222,0.2208,0.8541,0.8375,0.8044,0.8134,1.4347,1.3975,1.3585,1.3826
"PI_290716_LSP_AGL",1.2704,1.1561,1.178,1.1131,2.1176,2.1963,1.9694,1.9665,3.6469,3.3878,3.3798,3.0569,0.2632,0.2838,0.2551,0.2601,4.7942,4.5468,4.5207,4.1711,1.2019,1.1132,1.1247,1.0509,1.05,0.7957,0.9802,0.8548,1.2352,1.2034,1.1823,1.1227,2.1684,2.0418,2.0477,1.914,1.9862,1.8704,1.8869,1.7525,0.2965,0.2699,0.2655,0.2568,1.4305,1.4122,1.3656,1.3183,1.2645,1.1804,1.1934,1.1402,30.9984,29.0824,29.3483,27.4728,1.4554,1.3879,1.3868,1.2836,1.0793,1.2131,1.0097,1.101,0.2394,0.2272,0.2272,0.217,0.8474,0.8561,0.807,0.79,1.4158,1.3887,1.3498,1.3039
"PI_297285_LSP_AGL",1.3939,1.1475,1.1773,1.1601,2.3046,2.1916,2.1913,2.2264,3.7097,3.2895,3.4973,3.2994,0.2766,0.2725,0.2583,0.2705,5.1424,4.6535,4.9071,4.6766,1.2733,1.1365,1.1869,1.1579,0.9904,0.7765,1.0814,0.8837,1.3667,1.2557,1.2727,1.2589,2.3365,2.0892,2.1816,2.1131,2.1002,1.8958,1.9633,1.8965,0.2856,0.2605,0.2569,0.2652,1.5702,1.4629,1.4675,1.4674,1.3561,1.1888,1.2498,1.2139,33.0535,28.8377,31.4669,29.6025,1.5538,1.4192,1.4715,1.4317,1.1399,1.2087,1.0866,1.1535,0.2531,0.2286,0.2388,0.2336,0.9016,0.8819,0.876,0.8748,1.5392,1.4253,1.4307,1.4461
"PI_297287_AGL",1.2811,1.1895,1.2322,1.1661,2.3651,2.3414,2.3848,2.2335,3.7273,3.4819,3.7264,3.2881,0.2639,0.2775,0.2683,0.2634,5.1046,4.8328,5.1001,4.6651,1.2479,1.1955,1.2448,1.1749,1.0844,0.8075,1.0799,0.9181,1.3066,1.2762,1.3063,1.2505,2.2849,2.1615,2.2647,2.1242,2.0511,1.9633,2.0212,1.899,0.2935,0.2827,0.2776,0.2698,1.5293,1.5046,1.5208,1.4667,1.3206,1.2276,1.298,1.2391,32.7711,30.0319,32.5838,29.8501,1.5153,1.4622,1.5234,1.4315,1.1241,1.2906,1.1389,1.1305,0.2494,0.2383,0.2501,0.2347,0.9046,0.9243,0.9145,0.8748,1.4996,1.4755,1.4883,1.4515
"PI_297754_LSP_AGL",1.1559,1.085,1.0496,1.1284,1.9117,1.979,1.825,2.0806,3.2377,3.1284,3.0862,3.1642,0.2531,0.2653,0.2457,0.274,4.3983,4.285,4.2683,4.3788,1.0861,1.0634,1.0408,1.1081,0.9158,0.8066,0.9275,0.9273,1.1657,1.1757,1.1441,1.2102,2.0091,1.9456,1.9342,2.0141,1.8665,1.7913,1.7856,1.8267,0.271,0.2498,0.232,0.2542,1.3609,1.3649,1.3106,1.4019,1.1804,1.1127,1.1324,1.1669,28.4835,27.1622,27.8067,28.5272,1.3607,1.3256,1.3267,1.3946,0.9776,1.1646,0.9359,1.0753,0.2125,0.209,0.2063,0.221,0.7971,0.8292,0.7608,0.8455,1.3164,1.3223,1.2692,1.3895
"PI_297767_AGL",1.1881,1.1262,1.1946,1.2102,2.1118,2.151,2.184,2.2586,3.4072,3.1499,3.4918,3.117,0.2527,0.2655,0.2547,0.2481,4.8404,4.5094,4.9138,4.5444,1.1749,1.1001,1.1925,1.1264,0.9457,0.7868,1.0892,1.0936,1.2623,1.2224,1.2706,1.2414,2.1667,2.0269,2.1794,2.086,1.9449,1.8497,1.9658,1.8508,0.272,0.2447,0.2639,0.2338,1.4501,1.4307,1.4607,1.4559,1.2448,1.1663,1.2491,1.2487,30.1146,27.9222,31.3507,29.6402,1.4526,1.4017,1.4806,1.4198,0.9875,1.1756,1.0337,1.0235,0.2277,0.2199,0.2379,0.2258,0.8687,0.8659,0.8803,0.8406,1.4196,1.3842,1.4318,1.4211
"PI_297772_LSP_AGL",1.1614,1.085,1.2096,1.2109,2.1109,2.1449,2.2752,2.3045,3.4769,3.2158,3.6085,3.2558,0.2625,0.2609,0.2556,0.2406,4.723,4.4165,4.9666,4.5506,1.1484,1.0761,1.1949,1.1217,1.0181,0.8888,1.2162,1.2349,1.2328,1.1825,1.2948,1.2296,2.1173,1.9981,2.2156,2.0882,1.9195,1.7754,1.9607,1.8162,0.2803,0.2523,0.259,0.2437,1.4243,1.3865,1.4812,1.4412,1.1976,1.1598,1.2619,1.2427,29.8802,27.9703,31.7226,29.8421,1.4446,1.3528,1.4985,1.4002,1.0463,1.1504,1.043,1.0558,0.2224,0.2147,0.2353,0.2244,0.8664,0.8668,0.8848,0.8562,1.3972,1.348,1.4578,1.417
"PI_297783_AGL",1.1966,1.1369,1.2065,1.1358,2.2154,2.2122,2.3101,2.1179,3.5967,3.3443,3.706,3.1834,0.258,0.2621,0.2611,0.2506,4.8942,4.582,5.0361,4.435,1.1588,1.1274,1.2149,1.0868,1.0056,0.7944,1.1648,0.8916,1.2558,1.2148,1.3008,1.1844,2.176,2.0793,2.2366,2.0284,1.9529,1.8493,1.9952,1.8025,0.287,0.2634,0.2639,0.2567,1.4515,1.4277,1.4875,1.3847,1.2226,1.174,1.2489,1.1769,30.9751,28.904,32.1522,28.486,1.467,1.4067,1.5182,1.3637,1.0466,1.2046,1.0915,1.0806,0.2311,0.2272,0.242,0.2207,0.8681,0.8667,0.8756,0.8317,1.4335,1.4039,1.4805,1.3729
"PI_297787_LSP_AGL",1.1612,1.1617,1.1544,1.1992,2.0049,2.1338,2.0412,2.1794,3.4394,3.4277,3.4633,3.4113,0.2645,0.2813,0.2595,0.2749,4.6274,4.546,4.6568,4.6117,1.1317,1.1109,1.1327,1.1344,0.9405,0.7412,1.0296,0.8723,1.1999,1.2274,1.2164,1.2475,2.0792,2.046,2.0799,2.0911,1.9226,1.8733,1.9095,1.9028,0.2867,0.2791,0.2646,0.2782,1.3858,1.4134,1.3873,1.4324,1.1952,1.1719,1.2002,1.2011,29.4234,28.7014,30.0228,29.7589,1.4151,1.3975,1.4299,1.425,1.0371,1.2366,1.0097,1.191,0.2219,0.2239,0.2288,0.2319,0.8309,0.8564,0.8395,0.8635,1.3553,1.3933,1.374,1.4306
"PI_298023_LSP_AGL",1.2513,1.2272,1.223,1.1945,2.2572,2.3871,2.2672,2.3379,3.6758,3.6533,3.6148,3.3988,0.2909,0.2978,0.2672,0.2826,4.9948,4.9459,4.946,4.6754,1.2372,1.2311,1.2253,1.1708,1.0201,0.8836,1.1532,1.1027,1.3167,1.316,1.2881,1.2595,2.2501,2.2118,2.2154,2.1195,2.0404,1.9721,2.0007,1.8972,0.2953,0.2884,0.2658,0.2636,1.5175,1.5264,1.4894,1.4712,1.2565,1.2547,1.2675,1.2234,31.4317,30.712,31.9136,30.3908,1.5431,1.505,1.5109,1.4594,1.1011,1.2611,1.1019,1.1402,0.2421,0.2459,0.2409,0.2389,0.9197,0.9303,0.8918,0.9065,1.4911,1.5031,1.4589,1.4492
"PI_298121_LSP_AGL",1.2502,1.1948,1.1571,1.2191,2.249,2.3587,2.1015,2.3328,3.6548,3.532,3.4174,3.4795,0.2579,0.2685,0.2416,0.2675,4.9995,4.8526,4.7923,4.8083,1.2151,1.193,1.1511,1.1819,1.1027,0.9491,1.0777,1.0205,1.2931,1.2843,1.2447,1.2797,2.2482,2.1674,2.1408,2.163,2.025,1.9427,1.9523,1.9339,0.2926,0.2648,0.2575,0.2706,1.5065,1.4986,1.4396,1.4943,1.2891,1.2309,1.2386,1.2394,31.7673,30.4372,30.6375,30.5337,1.501,1.4587,1.4442,1.4574,1.0864,1.2673,1.0332,1.1825,0.2335,0.2363,0.2233,0.2339,0.882,0.9113,0.8369,0.8893,1.4669,1.4624,1.3984,1.47
"PI_298122_LSP_AGL",1.1671,1.1426,1.0979,1.1089,2.0824,2.1907,1.954,2.0966,3.3676,3.2497,3.1966,3.0961,0.2387,0.2467,0.2226,0.2479,4.7006,4.5955,4.5406,4.4136,1.1403,1.1208,1.0962,1.0778,0.9001,0.7774,0.8827,0.8064,1.2315,1.2411,1.1933,1.2054,2.1249,2.0784,2.0363,2.0076,1.936,1.8603,1.8528,1.8065,0.2752,0.2504,0.2502,0.2402,1.4333,1.4429,1.3695,1.3944,1.2158,1.1755,1.1605,1.1488,29.6234,28.5582,28.3298,28.1412,1.4337,1.4051,1.3837,1.3668,1.0487,1.145,0.9424,1.0425,0.2149,0.2165,0.2084,0.2165,0.8232,0.8545,0.7941,0.8137,1.4029,1.4216,1.3516,1.3896
"PI_298357_LSP_AGL",1.3145,1.2706,1.3323,1.2084,2.4788,2.4553,2.465,2.3071,3.8913,3.6787,3.8706,3.4486,0.296,0.2917,0.2646,0.2865,5.1553,5.0369,5.1555,4.6937,1.274,1.2241,1.3099,1.1655,1.2605,0.9464,1.3546,0.9382,1.3457,1.3408,1.3332,1.2558,2.3256,2.272,2.3369,2.1239,2.0881,2.0869,2.0663,1.8983,0.2952,0.2746,0.276,0.2652,1.5629,1.5668,1.5515,1.4727,1.3089,1.2724,1.3288,1.2082,33.7754,32.536,33.4985,29.9985,1.583,1.5651,1.5673,1.4446,1.1845,1.2353,1.1473,1.1923,0.2552,0.2495,0.2604,0.2367,0.9403,0.9472,0.9291,0.8798,1.5469,1.5633,1.5444,1.4484
"PI_298631_LSP_AGL",1.1947,1.1298,1.2386,1.1661,2.0435,2.1867,2.2137,2.2278,3.2924,3.1661,3.4302,3.2206,0.236,0.251,0.2368,0.2498,4.69,4.5285,4.8471,4.5922,1.1594,1.1294,1.1847,1.1317,0.9203,0.904,1.2308,0.9972,1.2243,1.2173,1.2563,1.2293,2.1255,2.044,2.1826,2.0756,1.909,1.8373,1.9374,1.856,0.2792,0.2535,0.2612,0.258,1.4198,1.427,1.4524,1.4342,1.2433,1.1904,1.2948,1.2213,29.6225,28.6533,31.8866,29.4723,1.3993,1.3923,1.4567,1.404,1.0313,1.1691,1.0029,1.074,0.2254,0.2241,0.2364,0.2283,0.8455,0.8584,0.8554,0.8544,1.3917,1.3917,1.4157,1.4148
"PI_298644_LSP_AGL",1.251,1.2282,1.2775,1.1198,2.1871,2.3419,2.2201,2.1314,3.4157,3.3142,3.4388,3.1625,0.2396,0.2599,0.2314,0.2528,4.9305,4.7465,4.9612,4.4934,1.2044,1.181,1.221,1.0999,0.9469,0.9111,1.2722,0.7701,1.2634,1.2692,1.2729,1.2243,2.2151,2.1431,2.2167,2.0405,1.9995,1.9098,1.9812,1.8,0.2914,0.2506,0.2651,0.2439,1.4882,1.4881,1.4711,1.4137,1.3001,1.2568,1.3129,1.1592,30.9582,29.8707,32.6968,28.1156,1.4595,1.4543,1.4829,1.3765,1.1332,1.2315,1.041,1.0591,0.2263,0.2314,0.2433,0.2186,0.8887,0.8999,0.8946,0.8176,1.4262,1.4425,1.4345,1.4049
"PI_298645_AGL",1.2383,1.1308,1.1825,1.17,2.2046,2.1756,2.0979,2.2175,3.5406,3.3437,3.3689,3.3257,0.2466,0.2587,0.2331,0.2583,4.921,4.6138,4.7457,4.6418,1.1878,1.1219,1.137,1.1378,1.0462,0.8906,1.0543,1.0002,1.278,1.2336,1.2311,1.2522,2.2255,2.0604,2.1272,2.0939,1.995,1.8511,1.9047,1.8684,0.2826,0.253,0.2593,0.2599,1.4861,1.4303,1.4204,1.4452,1.298,1.1778,1.2612,1.221,31.5322,28.9533,30.8039,29.8393,1.4816,1.3947,1.4229,1.4199,1.0697,1.1889,1.021,1.0753,0.2291,0.2238,0.2249,0.2294,0.8631,0.865,0.8294,0.8622,1.4384,1.389,1.374,1.4305
"PI_298921_AGL",1.297,1.1512,1.1917,1.1144,2.0802,2.1067,2.0588,2.1194,3.3805,3.2749,3.3831,3.1174,0.2497,0.2603,0.2424,0.26,4.8093,4.6362,4.8042,4.4887,1.1556,1.1323,1.1495,1.0875,0.8773,0.6061,0.8859,0.7392,1.2785,1.2458,1.2528,1.2139,2.1693,2.0819,2.1381,2.0151,2.02,1.906,1.9554,1.8343,0.2656,0.2649,0.2669,0.2525,1.4712,1.4549,1.439,1.4179,1.2888,1.1705,1.2353,1.1698,30.2091,27.478,29.7673,27.8163,1.4611,1.4136,1.4486,1.3763,0.9864,1.2207,1.0178,1.0716,0.2242,0.2139,0.2207,0.2168,0.8671,0.8681,0.8563,0.8434,1.4444,1.4027,1.4034,1.3827
"PI_298922_LSP_AGL",1.2225,1.0871,1.1318,1.1331,2.1566,2.0012,1.9698,2.137,3.5218,3.1225,3.2845,3.2062,0.2522,0.2402,0.2372,0.2498,4.8118,4.3686,4.5879,4.4817,1.1692,1.0768,1.1097,1.0914,1.0732,0.8595,1.0425,0.9448,1.262,1.1651,1.1952,1.2016,2.1746,1.9678,2.0469,2.0218,2.0017,1.8022,1.8528,1.8209,0.2685,0.2368,0.2491,0.2439,1.4654,1.3674,1.3746,1.4084,1.2667,1.1358,1.2006,1.1821,31.0506,27.4416,29.5717,28.8196,1.4735,1.3114,1.369,1.3492,1.0216,1.1593,0.9919,1.0926,0.2299,0.2063,0.2165,0.2153,0.8547,0.8061,0.8003,0.8257,1.4443,1.316,1.3307,1.3652
"PI_298923_LSP_AGL",1.2811,1.213,1.3267,1.2765,2.4273,2.404,2.4678,2.6319,3.711,3.5484,3.7948,3.6469,0.2715,0.2852,0.2648,0.2763,5.1559,4.8829,5.1893,5.0896,1.2464,1.2047,1.303,1.2323,1.2251,0.9284,1.505,1.2777,1.3422,1.306,1.3276,1.3399,2.3072,2.1854,2.3196,2.274,2.0957,1.948,2.0401,1.9982,0.274,0.2715,0.2788,0.2662,1.5591,1.5261,1.5342,1.5717,1.3253,1.2405,1.3431,1.3129,33.2757,30.5077,34.47,33.104,1.5814,1.4958,1.5604,1.541,1.1264,1.278,1.1438,1.2024,0.2456,0.2418,0.262,0.2514,0.94,0.9212,0.9374,0.9477,1.5347,1.4849,1.5111,1.5459
"PI_299116_LSP_AGL",1.1373,1.0517,1.1172,1.012,2.0501,1.854,2.0376,1.6976,3.3904,2.9467,3.3177,2.694,0.242,0.2397,0.2337,0.2206,4.5502,4.0701,4.6009,3.8116,1.1253,1.0273,1.1123,0.977,1.0475,0.6725,1.0321,0.6865,1.1933,1.1168,1.2066,1.0507,2.0476,1.8626,2.0553,1.7658,1.8765,1.7088,1.8556,1.6247,0.2573,0.2391,0.2477,0.2292,1.3859,1.2997,1.388,1.2324,1.198,1.1058,1.2017,1.0619,29.3488,26.1015,29.5178,24.5985,1.4034,1.2602,1.385,1.1772,0.9658,1.1038,0.9936,0.9977,0.22,0.2006,0.2168,0.1924,0.7958,0.7596,0.792,0.712,1.3631,1.2632,1.3512,1.2001
"PI_299120_LSP_AGL",1.1026,1.038,1.079,1.1368,1.935,1.8907,1.8975,2.1444,3.2358,3.0109,3.1416,3.2143,0.2273,0.2432,0.2291,0.237,4.4946,4.1368,4.4024,4.5176,1.0617,1.0062,1.0541,1.0669,0.9125,0.7638,0.9828,0.9086,1.1751,1.1295,1.1569,1.2212,2.0122,1.8742,1.9737,2.0359,1.8637,1.7316,1.7978,1.8432,0.2515,0.2428,0.2451,0.244,1.3573,1.3059,1.3282,1.4165,1.2012,1.1227,1.1849,1.1968,28.3259,26.5075,28.465,28.7143,1.358,1.2736,1.3303,1.3771,0.9352,1.0743,0.9308,1.0752,0.2068,0.1967,0.2061,0.2107,0.7803,0.7663,0.7596,0.8103,1.3152,1.2604,1.2785,1.3797
"PI_299121_LSP_AGL",1.1491,1.1072,1.1258,1.1159,1.9666,2.0858,2.0525,2.1052,3.322,3.2451,3.3746,3.102,0.2447,0.2531,0.2447,0.2459,4.5173,4.4628,4.6848,4.3778,1.0813,1.0886,1.1097,1.0453,0.8856,0.7668,0.9065,0.9473,1.1887,1.1895,1.231,1.1937,2.0414,1.9951,2.0889,1.9841,1.8839,1.8141,1.9016,1.801,0.2594,0.2614,0.2483,0.2356,1.3803,1.387,1.413,1.3904,1.205,1.1751,1.2219,1.1706,28.7101,27.8217,29.6161,28.3653,1.384,1.3512,1.4202,1.3509,0.9668,1.1612,0.984,1.0677,0.2155,0.2159,0.2172,0.2112,0.7858,0.8281,0.807,0.8002,1.3357,1.3398,1.3698,1.3483
"PI_299126_LSP_AGL",1.1042,1.1196,1.1277,1.1539,1.9273,2.1708,2.0226,2.2374,3.2464,3.2592,3.3154,3.2537,0.2197,0.2447,0.2299,0.2408,4.4724,4.5586,4.6307,4.5404,1.0996,1.1197,1.134,1.1244,1.0192,0.9204,1.0849,1.0599,1.1529,1.2127,1.1917,1.2175,2.0052,2.0474,2.0711,2.0572,1.8373,1.8531,1.8574,1.8265,0.2609,0.2537,0.2643,0.2489,1.3396,1.4236,1.379,1.4224,1.2143,1.2045,1.2296,1.2233,28.7449,28.7595,29.8251,29.6824,1.3347,1.3788,1.3772,1.3803,0.9977,1.2264,0.9996,1.1234,0.2112,0.2165,0.2217,0.2237,0.7693,0.8438,0.8047,0.8376,1.2911,1.3665,1.3348,1.3853
"PI_299163_LSP_AGL",1.2399,1.1702,1.2363,1.1748,2.2539,2.3177,2.2375,2.2935,3.6013,3.3627,3.4408,3.3244,0.2512,0.2651,0.2416,0.2663,5.0409,4.72,4.9101,4.6638,1.2216,1.158,1.1882,1.1571,1.0061,0.9041,1.1566,0.9456,1.2964,1.2538,1.2656,1.2533,2.2521,2.1142,2.1903,2.1048,2.044,1.9112,1.9732,1.8882,0.2787,0.2625,0.2625,0.2688,1.5097,1.4743,1.4662,1.4626,1.2973,1.2168,1.2961,1.2316,31.6059,29.5144,31.9842,29.7707,1.5087,1.4388,1.4626,1.4293,1.1192,1.2363,1.0455,1.1382,0.2391,0.2298,0.2358,0.2325,0.8946,0.9097,0.8692,0.8995,1.4757,1.437,1.4338,1.4454
"PI_299164_LSP_AGL",1.2496,1.0763,1.1632,1.1263,2.1514,2.0221,2.0448,1.9324,3.4214,3.0501,3.3045,2.874,0.2439,0.2484,0.2354,0.2539,4.7474,4.2735,4.6387,4.0844,1.1765,1.0701,1.1366,1.0568,1.0719,0.8751,1.1059,0.8976,1.2381,1.1352,1.1925,1.1375,2.1483,1.9228,2.0754,1.8977,1.9737,1.7592,1.8714,1.734,0.276,0.2581,0.2654,0.2438,1.4444,1.3381,1.3815,1.3212,1.2692,1.1492,1.2324,1.1554,30.9705,27.4282,30.2695,27.1315,1.4417,1.2911,1.3788,1.2887,1.0793,1.1499,1.0073,1.0197,0.234,0.2152,0.2275,0.2147,0.8735,0.8277,0.8317,0.7869,1.4241,1.2963,1.3449,1.3062
"PI_299165_AGL",1.1819,1.1401,1.1182,1.1114,2.0118,2.1956,1.9844,1.9792,3.2764,3.2203,3.217,3.0258,0.2364,0.259,0.2362,0.2517,4.6547,4.5828,4.6171,4.2925,1.1409,1.1221,1.126,1.0971,0.9802,0.8154,1.0363,0.8699,1.2186,1.2263,1.2025,1.171,2.0977,2.0609,2.0683,1.9653,1.9463,1.877,1.8958,1.787,0.2624,0.2555,0.2452,0.2596,1.4099,1.4457,1.3876,1.3559,1.2455,1.1956,1.2245,1.1769,30.0544,28.6899,29.9351,27.8101,1.4052,1.3955,1.3951,1.3258,1.0394,1.2044,1.0122,1.076,0.2222,0.2222,0.2187,0.2153,0.8354,0.8626,0.8166,0.8119,1.3786,1.3988,1.3419,1.3353
"PI_299177_LSP_AGL",1.3284,1.1722,1.1364,1.1548,2.0638,2.2259,1.9799,2.1494,3.4143,3.3643,3.2284,3.2398,0.2604,0.273,0.2359,0.2599,4.6778,4.6273,4.5509,4.5276,1.1945,1.1563,1.1262,1.133,1.0264,0.8423,1.1291,0.9548,1.2708,1.2433,1.1915,1.218,2.1647,2.087,2.0456,2.0549,1.9987,1.888,1.8721,1.8703,0.2631,0.2748,0.2443,0.2604,1.4561,1.4539,1.3733,1.4234,1.2931,1.2003,1.1937,1.1895,30.9688,29.1517,29.8636,29.1582,1.4614,1.418,1.391,1.3995,1.0293,1.2796,0.9985,1.1492,0.2383,0.2283,0.2251,0.2279,0.8455,0.891,0.8193,0.8603,1.4454,1.413,1.3458,1.403
"PI_299237_LSP_AGL",1.2636,1.1338,1.191,1.1897,2.2076,2.1814,2.1322,2.2486,3.674,3.3934,3.5846,3.5541,0.2825,0.2906,0.2629,0.2935,4.8284,4.5395,4.7966,4.7584,1.1937,1.1202,1.1557,1.1617,1.0478,0.8126,0.9215,0.8779,1.2711,1.2238,1.2482,1.274,2.1902,2.0487,2.1457,2.1396,2.0041,1.8708,1.9471,1.9167,0.2848,0.2699,0.2762,0.2863,1.4661,1.4184,1.4274,1.4684,1.2664,1.1806,1.2353,1.216,31.2615,28.7233,30.2947,29.4842,1.4982,1.411,1.4396,1.4348,1.0757,1.2064,1.0518,1.1653,0.2429,0.2232,0.2345,0.2294,0.8881,0.889,0.869,0.8973,1.4453,1.3821,1.4158,1.4426
"PI_299289_AGL",1.2894,1.2358,1.2511,1.2333,2.2608,2.383,2.2234,2.3495,3.6173,3.5788,3.5771,3.4894,0.2781,0.297,0.2718,0.2904,4.8517,4.8316,4.7725,4.7099,1.1975,1.1808,1.1934,1.163,1.1414,0.8541,1.2701,0.9674,1.2938,1.2902,1.259,1.2692,2.2172,2.1938,2.1606,2.1506,2.0466,1.9692,1.9484,1.9306,0.269,0.2724,0.262,0.2668,1.506,1.529,1.4573,1.4944,1.2599,1.2331,1.2445,1.2232,31.5925,29.9569,31.5853,30.3292,1.5262,1.4883,1.4883,1.459,1.0446,1.2624,1.0393,1.2036,0.2421,0.2351,0.2434,0.2352,0.8978,0.9389,0.8621,0.9087,1.5004,1.4888,1.435,1.4688
"PI_299312_AGL",1.3104,1.2491,1.2644,1.3219,2.4374,2.32,2.4015,2.5407,3.791,3.3974,3.7593,3.6575,0.261,0.2601,0.2764,0.2684,5.3355,4.805,5.1824,5.1506,1.29,1.1641,1.2581,1.2577,1.0701,0.8963,1.1154,1.0087,1.3683,1.2755,1.3408,1.3392,2.363,2.156,2.2935,2.2911,2.1354,1.9403,2.0472,2.0357,0.2855,0.2688,0.2706,0.2853,1.5851,1.4923,1.5407,1.5737,1.3569,1.2662,1.3101,1.3207,33.6138,30.1346,33.155,32.2167,1.5818,1.4433,1.5576,1.5232,1.1885,1.1898,1.1681,1.254,0.255,0.2338,0.2521,0.2509,0.9482,0.8822,0.9268,0.9538,1.5668,1.4613,1.5148,1.5522
"PI_299345_AGL",1.2964,1.1627,1.2188,1.1877,2.2531,2.2775,2.1701,2.2532,3.5345,3.3217,3.4398,3.2678,0.2473,0.2599,0.2404,0.2517,4.9989,4.6962,4.8443,4.6363,1.2086,1.1615,1.1881,1.1368,1.1231,0.9474,1.156,1.0389,1.3149,1.2495,1.2602,1.2335,2.2596,2.1072,2.175,2.0899,2.0548,1.8802,1.9566,1.8721,0.2695,0.2593,0.2517,0.2578,1.5197,1.4647,1.4548,1.4394,1.3097,1.2193,1.2658,1.2327,32.2637,29.5105,31.5434,29.8313,1.5251,1.4158,1.4733,1.4065,1.0679,1.2086,1.068,1.1103,0.2447,0.2306,0.2382,0.2329,0.9035,0.8826,0.8567,0.866,1.5029,1.4251,1.4245,1.4153
"PI_299351_LSP_AGL",1.1768,1.1325,1.2262,1.2059,1.8925,2.0345,2.1018,2.2152,3.3523,3.2552,3.5419,3.4277,0.2629,0.2866,0.2691,0.2804,4.4241,4.3073,4.7363,4.6228,1.0824,1.076,1.1759,1.1238,0.8197,0.7014,1.0901,0.9316,1.1606,1.1546,1.245,1.2296,2.0045,1.9548,2.1415,2.0888,1.8839,1.806,1.9547,1.9131,0.2798,0.2732,0.2653,0.2758,1.34,1.3538,1.4269,1.4331,1.1676,1.1269,1.2259,1.1944,28.0229,27.2476,30.6175,29.606,1.3639,1.3348,1.4555,1.4107,0.9795,1.2038,1.0378,1.1468,0.2204,0.221,0.2347,0.2321,0.8075,0.8565,0.855,0.8805,1.3255,1.3326,1.4136,1.4279
"PI_299366_LSP_AGL",1.2018,1.1098,1.1157,1.1387,2.0715,2.124,1.9887,2.1769,3.3629,3.0555,3.2038,3.1498,0.2305,0.2467,0.227,0.2468,4.7845,4.4042,4.5902,4.5166,1.1506,1.0743,1.107,1.0869,0.9683,0.8391,1.0469,0.9281,1.2344,1.1696,1.1823,1.1973,2.1518,1.9893,2.0478,2.0358,1.972,1.7964,1.8629,1.8151,0.2627,0.2346,0.239,0.2407,1.4377,1.3892,1.3734,1.4064,1.2572,1.1667,1.2087,1.2032,30.2166,27.815,29.3633,28.7448,1.4226,1.3311,1.3696,1.3502,1.0623,1.1575,1.0021,1.0628,0.2247,0.2156,0.217,0.22,0.8349,0.8206,0.801,0.8229,1.4089,1.3447,1.3305,1.3803
"PI_299375_LSP_AGL",1.1878,1.0786,1.1752,1.1922,2.0903,2.0235,2.0713,2.1477,3.4019,3.0367,3.3634,3.2385,0.2467,0.249,0.2502,0.2511,4.7504,4.3098,4.6955,4.5695,1.1356,1.0533,1.1406,1.129,0.961,0.8535,1.094,0.9515,1.2403,1.1549,1.2367,1.2227,2.1333,1.9351,2.106,2.0645,1.9749,1.764,1.926,1.8664,0.2648,0.2415,0.2447,0.2721,1.4342,1.3527,1.4192,1.4206,1.2409,1.1414,1.2127,1.2171,30.3107,27.2864,30.0112,29.1075,1.445,1.3031,1.4371,1.3923,1.0474,1.1504,1.006,1.1145,0.2276,0.2102,0.2264,0.2267,0.8604,0.8287,0.8519,0.8692,1.4141,1.2979,1.392,1.4062
"PI_300250_LSP_AGL",1.1864,1.1594,1.1342,1.1551,2.215,2.2181,2.121,2.2761,3.5908,3.3707,3.4308,3.2842,0.2578,0.2714,0.2507,0.2483,4.9024,4.5949,4.7379,4.662,1.1497,1.1118,1.12,1.101,1.0209,0.8461,1.0478,1.0986,1.2851,1.2322,1.2563,1.2497,2.1825,2.0791,2.1171,2.1091,1.9773,1.8688,1.919,1.8578,0.2629,0.2569,0.2425,0.2444,1.4779,1.451,1.436,1.4575,1.2478,1.1803,1.2099,1.2312,30.5947,28.6514,29.8624,30.0001,1.4914,1.41,1.4512,1.4217,1.0229,1.2076,1.0145,1.0608,0.2246,0.2211,0.2174,0.2192,0.8766,0.8865,0.864,0.8613,1.4448,1.4041,1.4066,1.4232
"PI_302398_LSP_AGL",1.0295,0.9942,1.0121,1.065,1.6475,1.7709,1.79,1.9981,2.8977,2.8205,2.9393,2.7952,0.2317,0.2416,0.228,0.2361,3.95,3.9105,4.1405,3.9971,0.9847,0.9852,1.018,1.0089,0.8669,0.7356,1.0408,1.1002,1.0599,1.0848,1.108,1.1256,1.8082,1.8136,1.8853,1.8697,1.694,1.6403,1.7044,1.6352,0.2456,0.2438,0.2224,0.2176,1.2216,1.2655,1.2698,1.3054,1.1034,1.0891,1.1365,1.1543,25.703,24.7271,27.1524,26.9566,1.2358,1.2025,1.2662,1.2796,0.8533,1.0844,0.8771,0.9272,0.1967,0.1922,0.2024,0.2025,0.7427,0.7855,0.7509,0.7849,1.182,1.1994,1.2247,1.2683
"PI_308614_LSP_AGL",1.1684,1.1081,1.1508,1.1557,2.1244,2.1757,2.0966,2.2263,3.5289,3.3232,3.4247,3.2538,0.2535,0.2613,0.2457,0.253,4.793,4.5086,4.7222,4.49,1.1556,1.1054,1.15,1.0962,0.995,0.8978,1.1077,1.1019,1.2498,1.1978,1.2478,1.2113,2.135,2.0346,2.1208,2.0505,1.9378,1.8253,1.9226,1.8032,0.2729,0.2562,0.2502,0.2468,1.4364,1.4044,1.4295,1.4145,1.217,1.1549,1.2031,1.2025,30.1071,28.4109,29.9299,29.2676,1.4541,1.3879,1.4509,1.3856,1.0412,1.1804,1.0239,1.0754,0.2258,0.2213,0.2244,0.2199,0.8708,0.877,0.857,0.858,1.4139,1.3694,1.4112,1.3824
"PI_311107_LSP_AGL",1.1448,1.1227,1.1196,1.098,2.1052,2.1475,2.0753,2.1418,3.3265,3.2521,3.2311,3.0955,0.2408,0.2524,0.2263,0.2393,4.6598,4.548,4.6223,4.4182,1.1213,1.117,1.1192,1.066,0.9941,0.8975,1.1305,1.0099,1.2189,1.2209,1.2104,1.1866,2.0963,2.0521,2.0796,1.9927,1.9204,1.8613,1.876,1.779,0.251,0.2534,0.2322,0.2377,1.4172,1.4191,1.396,1.3835,1.2368,1.1859,1.2361,1.1849,29.9677,28.7501,30.227,28.5108,1.4205,1.3942,1.4048,1.3444,1.011,1.1505,0.9917,1.048,0.2225,0.2228,0.2184,0.2152,0.8205,0.8457,0.8078,0.8034,1.3797,1.3898,1.3502,1.3425
"PI_312175_LSP_AGL",1.2146,1.1491,1.1677,1.1997,2.1013,2.1288,2.0611,2.3102,3.4742,3.2631,3.472,3.4798,0.2689,0.276,0.2734,0.286,4.7959,4.5625,4.7186,4.7933,1.1799,1.1209,1.151,1.1793,0.8711,0.7098,0.8969,0.8796,1.2776,1.2467,1.2508,1.2921,2.1727,2.0661,2.1313,2.1598,2.0118,1.9122,1.9464,1.9627,0.2681,0.263,0.2519,0.2712,1.4773,1.4482,1.4337,1.5036,1.2334,1.1714,1.2092,1.2144,30.2083,28.6365,30.3029,30.1455,1.4864,1.4229,1.4554,1.4804,1.0701,1.2025,1.038,1.1836,0.2338,0.2236,0.2358,0.2369,0.8673,0.8738,0.8394,0.9055,1.4487,1.4231,1.4027,1.4837
"PI_320935_LSP_AGL",1.1104,1.1433,1.1108,1.1962,1.7827,2.0211,1.768,2.1095,3.1434,3.2545,3.0161,3.2679,0.2507,0.2741,0.2395,0.2671,4.1619,4.3675,4.1917,4.4626,1.0522,1.1082,1.0562,1.1195,0.9353,0.8646,0.9712,1.0345,1.1052,1.1881,1.1288,1.2028,1.9102,1.9954,1.9251,2.0353,1.8007,1.8348,1.796,1.8529,0.2573,0.2693,0.2392,0.2712,1.2851,1.3795,1.3001,1.3975,1.1508,1.1716,1.1492,1.1961,27.5226,28.164,27.6321,28.9962,1.3126,1.3658,1.3152,1.3786,0.9395,1.1523,0.9585,1.0997,0.2132,0.2215,0.211,0.2278,0.7754,0.8673,0.7825,0.8752,1.2545,1.3411,1.2653,1.3778
"PI_320936_LSP_AGL",1.3547,1.1186,1.2113,1.121,2.2753,2.2877,2.2555,2.127,3.7425,3.3193,3.6261,3.1517,0.2655,0.2594,0.2508,0.25,5.0467,4.6194,4.9866,4.4273,1.2629,1.1484,1.2105,1.1009,0.9881,0.6787,1.0912,0.7463,1.3386,1.2258,1.2964,1.1772,2.2788,2.1196,2.2217,2.0307,2.0855,1.867,2.0241,1.8137,0.2924,0.2667,0.2722,0.2594,1.541,1.4713,1.4934,1.4032,1.2635,1.1842,1.2346,1.1548,31.8686,29.1775,31.7388,28.2885,1.5699,1.4635,1.5275,1.378,1.1453,1.2743,1.0951,1.1515,0.2429,0.2244,0.2357,0.2215,0.9251,0.923,0.9036,0.8602,1.5377,1.4223,1.4873,1.3746
"PI_320937_LSP_AGL",1.4379,1.2281,1.1875,1.1817,2.436,2.4104,2.1101,2.208,3.8908,3.4886,3.3855,3.2319,0.2999,0.2723,0.2555,0.2664,5.1186,4.877,4.7089,4.5477,1.3061,1.2091,1.1709,1.115,1.0827,0.9538,0.9368,0.8062,1.4205,1.3026,1.2663,1.2341,2.3891,2.1999,2.1446,2.0884,2.173,1.9574,1.9483,1.8677,0.2671,0.2637,0.2547,0.2499,1.6285,1.5236,1.4531,1.4457,1.3139,1.2235,1.2018,1.203,33.1982,30.7989,29.8895,29.1334,1.6787,1.5195,1.4983,1.4247,1.1197,1.2669,1.0104,1.1039,0.2596,0.2367,0.2225,0.2208,0.9229,0.9376,0.8663,0.8666,1.6408,1.5039,1.4432,1.4249
"PI_320941_LSP_AGL",1.1582,1.1767,1.2008,1.131,2.0085,2.1293,2.0548,2.1034,3.3987,3.432,3.4622,3.2061,0.2617,0.2834,0.2549,0.2781,4.5974,4.5501,4.6601,4.3873,1.1177,1.1233,1.1603,1.122,0.9328,0.7584,1.1198,0.9635,1.1987,1.2273,1.2251,1.2038,2.072,2.065,2.1115,2.0368,1.9322,1.9201,1.9473,1.8317,0.2812,0.2754,0.2647,0.2655,1.3912,1.4221,1.4072,1.401,1.1826,1.157,1.2049,1.1716,29.2409,28.699,30.3421,28.9735,1.4091,1.4198,1.4512,1.3995,1.0375,1.226,1.0389,1.148,0.2179,0.2269,0.2306,0.2258,0.8328,0.8733,0.8458,0.8553,1.3642,1.4087,1.3946,1.3933
"PI_320945_LSP_AGL",1.1664,1.1301,1.0921,1.1641,2.0654,2.1688,1.9304,2.2548,3.3094,3.2577,3.1504,3.2243,0.2443,0.2527,0.2287,0.26,4.6037,4.5415,4.4368,4.5319,1.1498,1.1264,1.097,1.1423,1.1216,0.8925,1.0366,1.0721,1.208,1.2187,1.1782,1.2291,2.0986,2.0633,2.0126,2.0762,1.9247,1.8699,1.8428,1.8465,0.2702,0.2609,0.2403,0.2531,1.4152,1.4388,1.3589,1.4463,1.2197,1.1805,1.1812,1.2102,29.9377,28.4478,28.7303,29.3351,1.4262,1.3973,1.3713,1.4236,1.0213,1.219,0.9661,1.1073,0.2175,0.2131,0.207,0.2235,0.8344,0.8663,0.791,0.8729,1.3748,1.3869,1.3202,1.4171
"PI_320946_LSP_AGL",1.143,1.0069,1.0451,1.02,1.9762,1.9317,1.9805,1.9886,3.3455,3.0051,3.1818,2.9487,0.2519,0.2555,0.244,0.2528,4.5796,4.1443,4.4807,4.1745,1.1154,1.0297,1.0734,1.0315,0.9452,0.7836,1.0237,0.9782,1.1895,1.1269,1.1868,1.1393,2.0524,1.8751,1.9953,1.8943,1.8978,1.7087,1.8327,1.7127,0.2794,0.2524,0.2322,0.2358,1.381,1.3073,1.3626,1.3209,1.1869,1.1165,1.162,1.125,28.9856,26.5148,28.6415,27.4578,1.4044,1.2822,1.3866,1.3101,0.9791,1.0915,0.9599,1.0083,0.2177,0.2025,0.2086,0.2083,0.8277,0.8105,0.8062,0.7936,1.3416,1.2595,1.3121,1.2843
"PI_320952_LSP_AGL",1.4178,1.2632,1.2881,1.2237,2.4312,2.3943,2.3023,2.2387,3.9673,3.6535,3.7299,3.4262,0.2973,0.2733,0.2658,0.2763,5.2561,4.9793,5.082,4.6688,1.3065,1.2567,1.2631,1.1841,0.9852,0.8059,1.0017,0.7595,1.4222,1.3285,1.3528,1.2658,2.4185,2.2778,2.3022,2.1722,2.1818,2.0063,2.1008,1.91,0.2943,0.2837,0.2798,0.273,1.6298,1.5556,1.5508,1.484,1.305,1.2358,1.2413,1.2151,33.2985,30.9314,32.0774,29.7897,1.6537,1.5646,1.5987,1.4823,1.1885,1.2882,1.1897,1.1951,0.2565,0.2441,0.2433,0.2348,0.933,0.9664,0.9329,0.9059,1.6363,1.5419,1.5619,1.4683
"PI_320953_LSP_AGL",1.22,1.2409,1.2312,1.1294,2.1221,2.3766,2.1297,2.0549,3.5521,3.597,3.5878,3.1314,0.2751,0.2825,0.2593,0.2626,4.825,4.8865,4.8477,4.3325,1.1857,1.2078,1.1883,1.08,0.7647,0.795,0.8978,0.6727,1.2766,1.3046,1.2824,1.1784,2.2013,2.224,2.1823,2.0203,2.014,1.9917,2.0132,1.8022,0.2871,0.2806,0.2676,0.2573,1.4832,1.5323,1.4633,1.3943,1.1995,1.2223,1.2021,1.1526,30.0926,30.5982,30.4998,27.8191,1.4988,1.5197,1.4929,1.375,1.1269,1.278,1.0952,1.1116,0.2297,0.2417,0.2361,0.2225,0.8756,0.9382,0.8694,0.8525,1.4679,1.5187,1.475,1.3712
"PI_320954_LSP_AGL",1.2104,1.1575,1.1649,1.1686,2.115,2.1801,2.02,2.2049,3.3815,3.2106,3.2795,3.2071,0.2438,0.2525,0.2362,0.2603,4.7899,4.5759,4.6452,4.5819,1.1693,1.1215,1.15,1.1315,0.914,0.7631,0.9784,0.8297,1.2617,1.2412,1.2393,1.2492,2.1765,2.0866,2.0905,2.0986,1.9727,1.8644,1.9029,1.8628,0.2821,0.25,0.2444,0.2549,1.4651,1.4459,1.4061,1.4502,1.2274,1.1971,1.1834,1.2031,30.2658,28.7859,29.6942,29.3726,1.4736,1.4197,1.4425,1.4342,1.0473,1.1258,0.9969,1.1261,0.2228,0.2206,0.2226,0.2257,0.8553,0.8524,0.815,0.8667,1.4395,1.4287,1.4004,1.4387
"PI_329157_LSP_AGL",1.306,1.1862,1.2526,1.2413,2.3103,2.2469,2.2464,2.3462,3.7594,3.4092,3.5891,3.4568,0.2848,0.2896,0.2674,0.2762,5.1505,4.7,5.0079,4.9439,1.2624,1.1704,1.2124,1.1988,0.9878,0.7671,1.0642,0.911,1.34,1.2726,1.3134,1.333,2.3126,2.1252,2.2405,2.2354,2.1122,1.9356,2.058,2.018,0.3096,0.2803,0.2676,0.2765,1.557,1.491,1.5118,1.5513,1.293,1.1942,1.273,1.2641,32.0842,29.0066,32.1252,30.9923,1.5776,1.4711,1.5402,1.534,1.1894,1.2723,1.1015,1.1609,0.2414,0.2299,0.2406,0.2382,0.9501,0.9325,0.914,0.9445,1.5197,1.4495,1.4906,1.5356
"PI_329167_LSP_AGL",1.336,1.1582,1.3068,1.3291,2.3948,2.2302,2.4605,2.4862,3.7938,3.3146,3.8549,3.6106,0.2909,0.2758,0.2761,0.2874,5.1678,4.6218,5.2799,5.093,1.2678,1.1442,1.2895,1.2619,1.0931,0.8467,1.242,1.0349,1.3504,1.2464,1.3696,1.3857,2.3206,2.0741,2.3369,2.3141,2.099,1.8779,2.1037,2.0533,0.3014,0.2634,0.2799,0.2746,1.563,1.4508,1.5745,1.5996,1.3043,1.1869,1.3165,1.303,33.0675,28.918,33.8932,32.257,1.5925,1.4195,1.603,1.5826,1.1172,1.2357,1.1769,1.2018,0.2514,0.2289,0.2574,0.2527,0.9501,0.8993,0.9648,0.9632,1.5405,1.4191,1.5576,1.599
"PI_339266_LSP_AGL",1.3227,1.1581,1.181,1.1627,2.3402,2.164,2.0578,2.1217,3.7006,3.2524,3.3456,3.1664,0.2808,0.2767,0.2457,0.2657,5.0575,4.5374,4.678,4.4499,1.2372,1.1287,1.166,1.1324,1.0374,0.7573,1.0086,0.9218,1.3192,1.2391,1.2298,1.223,2.2862,2.0544,2.1175,2.0512,2.0781,1.8748,1.9254,1.8314,0.2977,0.2541,0.2473,0.2571,1.5371,1.4439,1.4223,1.4219,1.3202,1.1877,1.2388,1.2162,32.4418,28.3514,30.2039,28.654,1.5436,1.4174,1.4349,1.3997,1.1246,1.2146,1.0604,1.0689,0.2442,0.2266,0.2316,0.2261,0.9168,0.8685,0.8383,0.8338,1.5003,1.4016,1.383,1.3988
"PI_339283_LSP_AGL",1.1496,1.0667,1.1582,1.0925,2.033,2.1177,2.0745,2.0382,3.4024,3.1666,3.3786,3.0078,0.2609,0.2662,0.2491,0.2443,4.6588,4.3085,4.6623,4.2155,1.1355,1.0677,1.1457,1.0488,0.9327,0.7704,1.0836,1.0765,1.2109,1.1533,1.2252,1.1443,2.1001,1.9699,2.0977,1.9511,1.9182,1.7467,1.9121,1.7168,0.2813,0.2511,0.2515,0.2389,1.4126,1.3691,1.4104,1.3432,1.1881,1.141,1.1985,1.1711,29.3781,27.3715,29.9443,27.9365,1.4313,1.3439,1.4385,1.3129,1.0532,1.1501,1.0175,0.9747,0.2202,0.2144,0.2263,0.2144,0.8407,0.8542,0.8476,0.7943,1.3751,1.3189,1.3965,1.3176
"PI_339285_AGL",1.1886,1.1335,1.1599,1.1434,2.1398,2.1417,2.1112,2.2523,3.5612,3.3452,3.4196,3.3119,0.2605,0.2625,0.2416,0.2515,4.8274,4.5915,4.7022,4.6047,1.1714,1.1159,1.1381,1.1179,1.0716,0.8174,1.19,1.1725,1.2574,1.227,1.2292,1.2221,2.1638,2.0649,2.1113,2.0773,1.9567,1.867,1.9054,1.8364,0.2851,0.2769,0.2539,0.2641,1.4424,1.4214,1.4072,1.4162,1.243,1.1946,1.2416,1.2242,30.731,28.5493,30.6053,30.2624,1.4661,1.3919,1.4284,1.3964,1.0656,1.2136,0.992,1.0924,0.2283,0.2181,0.2265,0.2283,0.8749,0.8772,0.8399,0.8698,1.4163,1.3826,1.3883,1.4053
"PI_339289_LSP_AGL",1.2402,1.1983,1.1719,1.1397,2.1436,2.2791,2.1036,2.1291,3.5068,3.4887,3.3936,3.1688,0.2733,0.2908,0.2614,0.2792,4.7585,4.6991,4.67,4.357,1.1615,1.1586,1.1337,1.1008,1.0536,0.7945,1.0504,0.9002,1.2488,1.2493,1.2221,1.1829,2.1473,2.1154,2.0801,1.9876,1.9698,1.8937,1.9186,1.7812,0.285,0.2782,0.2566,0.2568,1.4446,1.458,1.4053,1.3798,1.2279,1.2182,1.2033,1.1656,30.6976,29.2492,30.0458,28.1775,1.4619,1.4326,1.4307,1.3646,1.0266,1.227,1.0084,1.0963,0.2352,0.2365,0.2305,0.2272,0.8709,0.9006,0.8504,0.8513,1.4298,1.4331,1.3888,1.3614
"PI_339292_LSP_AGL",1.3067,1.2505,1.2469,1.2393,2.3666,2.441,2.2825,2.4015,3.8522,3.7261,3.7177,3.6096,0.2919,0.3005,0.2762,0.2948,5.1319,4.9927,4.9837,4.8949,1.2692,1.2296,1.2348,1.23,1.0698,0.8959,1.1722,1.0607,1.3417,1.3289,1.2987,1.3205,2.3144,2.2383,2.2348,2.2155,2.0914,2.0205,2.0109,1.975,0.3046,0.2897,0.2763,0.2794,1.5513,1.55,1.4945,1.5295,1.2971,1.2484,1.2631,1.249,32.5609,31.2293,32.1644,31.3108,1.579,1.5484,1.5336,1.5314,1.1377,1.2991,1.1184,1.1986,0.2486,0.2452,0.2488,0.2476,0.9264,0.9596,0.9065,0.9384,1.5305,1.5286,1.4719,1.5176
"PI_339296_AGL",1.1789,1.1885,1.1609,1.2003,1.9215,2.1411,1.9232,2.0651,3.3459,3.4509,3.3085,3.2249,0.273,0.2835,0.2497,0.2812,4.3749,4.5187,4.4899,4.312,1.1149,1.1444,1.1168,1.102,0.8966,0.7668,0.9163,0.8813,1.1601,1.2152,1.1907,1.196,2.002,2.0633,2.0319,2.0014,1.867,1.8785,1.8742,1.8099,0.288,0.2742,0.2494,0.2581,1.3508,1.4213,1.3654,1.39,1.1554,1.1734,1.1756,1.1793,28.6099,28.7694,28.6045,28.2024,1.3672,1.3971,1.3843,1.3621,1.0616,1.2336,0.9834,1.0705,0.2219,0.2319,0.2216,0.2243,0.8049,0.863,0.7947,0.828,1.3267,1.4056,1.3455,1.3777
"PI_343026_LSP_AGL",1.2388,1.1934,1.1456,1.2046,2.1574,2.2352,2.0113,2.2214,3.6457,3.4889,3.4396,3.3832,0.2753,0.2765,0.2522,0.2666,4.8949,4.7147,4.6654,4.6341,1.2113,1.1436,1.1413,1.1509,1.0566,0.8801,1.0054,1.0217,1.2703,1.2528,1.2146,1.2405,2.206,2.1057,2.0867,2.0996,2.0169,1.9331,1.9129,1.9014,0.3009,0.2731,0.2628,0.2775,1.4648,1.4451,1.3824,1.4361,1.2594,1.2087,1.2101,1.2342,31.4029,30.0992,29.9089,30.1487,1.4932,1.4435,1.4127,1.4216,1.1213,1.2415,1.0425,1.1728,0.2387,0.2311,0.2284,0.2335,0.8865,0.8865,0.8353,0.8752,1.4461,1.4278,1.3657,1.4322
